Klasse,minimumSteigungWert,maximumSteigungWert,minimumSenkungWert,maximumSenkungWert,steigungA,steigungB,steigungC,senkungA,senkungB,senkungC,mittelA,mittelB,mittelC,gesamtA,gesamtB,gesamtC,fftAnfangMedian,fftAnfangMittel,fftAnfangPSD,fftMitteMedian,fftMitteMittel,fftMittePSD,fftEndeMedian,fftEndeMittel,fftEndePSD,fftGesamtMedian,fftGesamtMittel,fftGesamtPSD,mittelwert,signalstärke,varianz,standardabweichung,energie,kurtosis,schiefe,zeroCrossings,laenge,maximalwert,minimalwert
Finger3,159.50869083917468,354.68757789775196,100.30329102982846,396.1163293063818,408.6739180605332,3.7692156977254854,3.7692156977254854,354.19331496315635,-28.710334600363467,-2.0670787852118337,408.6739180605332,3.7692156977254854,3.7692156977254854,31.533638730555083,-0.04531262725768809,1.3422692070745473E-5,0.0,0.0,0.0,0.0,0.0,0.0,0.0,0.0,0.0,0.0,0.0,0.0,-3.5042629217661707,51280.30400679714,9676.238059733389,98.36787107452,9828254.875306964,75.39114458603555,-2.580192648194909,738.0,4020.0,1083.5175,-1248.4772
Finger3,69.55242550418393,568.4321981627155,41.51263525850824,631.4841959665891,357.56503017279965,-6.1022067768575,0.05296942643125213,357.56503017279965,-6.1022067768575,0.05296942643125213,357.56503017279965,-6.1022067768575,0.05296942643125213,357.56503017279965,-6.1022067768575,0.05296942643125213,10.0,16.526611371847515,1.713601029039167E9,0.0,0.0,4960679.534918889,0.0,0.0,0.0,0.0,0.0,0.0,-15.105340327264978,28342.857668923796,318971.55543574796,564.7756682398312,9276393.34339897,-0.5067613086361518,-0.621666212441769,6.0,117.0,878.1738,-1392.4896
Finger3,103.62523678560706,290.53293793494765,92.32419667328183,314.9750436311203,217.00819571279976,-3.0663848919230077,0.09071191429896786,217.00819571279976,-3.0663848919230077,0.09071191429896786,217.00819571279976,-3.0663848919230077,0.09071191429896786,217.00819571279976,-3.0663848919230077,0.09071191429896786,2.0,3.8339208220417182,1.4320725914082098E8,0.0,0.0,1033776.6175137634,0.0,0.0,0.0,0.0,0.0,0.0,47.993659374999986,6368.190657923971,186200.24101870903,431.5092594820058,1494943.9412995894,-1.1374448429362158,-0.3671776035951575,1.0,32.0,638.38806,-724.1913
Finger3,366.3288486846,791.8394431082424,166.5618412673047,863.6754646266489,793.5438563437542,-66.08881051456092,-3.9488244280013305,464.93379662237476,0.36218765823559806,0.024301498583493064,464.93379662237476,0.36218765823559806,0.024301498583493064,464.93379662237476,0.36218765823559806,0.024301498583493064,5.0,8.975714112602518,3.4125808797162576E9,0.0,0.35601077655807695,3.590840928470942E7,1.0,0.8311806643592912,1.983257064702322E8,0.0,0.0,0.0,-87.6801842608696,35533.64096705758,1206703.0165085178,1098.5003488886646,2.1120724511645775E7,-1.4286325346719477,-0.16907374137727674,4.0,69.0,1459.3597,-1963.4033
Finger3,113.86124134136432,305.0078682656674,141.8204143632089,357.55519137569024,165.6727088509308,63.10284941178918,-6.009220087182719,165.6727088509308,63.10284941178918,-6.009220087182719,165.6727088509308,63.10284941178918,-6.009220087182719,165.6727088509308,63.10284941178918,-6.009220087182719,0.0,0.9222148662454348,235290.91750121114,0.0,0.0,1371317.6313105982,0.0,0.0,0.0,0.0,0.0,0.0,-402.1503153846154,3169.774414169605,105494.16531017587,324.7986534919378,872016.9440391705,-1.353480107090018,0.2989059533005217,1.0,13.0,164.7583,-818.05115
Finger3,181.08461196579898,631.8258788858582,52.3680522814278,790.082185669971,641.7539882453323,-113.0982952865586,3.6641157769110464,210.55402061076074,-0.989872892093274,0.05681196206104877,210.55402061076074,-0.989872892093274,0.05681196206104877,210.55402061076074,-0.989872892093274,0.05681196206104877,10.0,16.715713077548088,1.0632177356872969E10,1.0,1.6559579858138498,4.968987589635518E8,1.0,0.8317575297271437,1.2013801526463744E8,0.0,0.0,0.0,-16.533377335238026,38313.6003041885,749040.4797604322,865.4712472176254,1.955989016897201E7,-0.49094700723994755,-0.10798738539927655,6.0,105.0,1726.236,-1793.1061
Finger3,104.68373779215993,253.09885033564544,133.87928429218414,266.7623460990574,282.8950785353894,-2.135740280151367,-2.135740280151367,292.3897306093893,-0.5379041084383331,-0.0031275104189227576,260.50602190447637,-60.520529412856604,5.541133462412461,292.3897306093893,-0.5379041084383331,-0.0031275104189227576,21.0,33.35749654154584,1.5361107120178898E10,0.0,0.0,635695.74140809,0.0,0.0,0.0,0.0,0.0,0.0,17.317419257692325,39923.21319524795,210574.53001659425,458.8840049692234,1.090860460531699E7,-0.6061291392135928,-0.389071972730173,12.0,208.0,813.9221,-1040.5151
Finger3,222.78498733581972,484.2816684697446,80.8607015358231,543.3472977105545,485.6848473660548,-42.888156344991785,-2.0451094797107885,444.2809781475107,-7.65173748842281,0.04484660856733125,444.2809781475107,-7.65173748842281,0.04484660856733125,444.2809781475107,-7.65173748842281,0.04484660856733125,21.0,33.92111745235561,1.1159768641074162E10,0.0,0.33405183374860803,2.6831706499143854E7,1.0,0.8273011752805551,7.292868723081064E7,0.0,0.0,0.0,-7.511467591508388,42646.172374035596,357854.9197299928,598.2097623158559,1.6118050842975538E7,-0.08485772691841298,0.21641663180029996,11.0,179.0,1581.5186,-1197.9218
Finger3,216.96341155189353,631.0654390262912,95.4367109073873,675.8756116920879,636.5027562862499,-83.85135859718775,-0.2612909525568625,0.0,0.0,0.0,636.5027562862499,-83.85135859718775,-0.2612909525568625,636.5027562862499,-83.85135859718775,-0.2612909525568625,23.0,34.83169433469003,1.5061012530274548E10,0.0,0.3570661615567223,2.170546286549984E7,0.0,0.0,0.0,23.0,35.08721024382396,2.0628914436463177E10,58.49995097987421,46323.69704322612,485342.17260311724,696.6650361566291,1.9464227960954536E7,-0.058253452061174826,-0.21350809832051726,8.0,159.0,1498.7366,-1700.4547
Finger3,352.08736593392047,959.2917700342252,44.22996108581347,1049.3203503907869,144.62346631984383,-1.5923322172976953,0.029667056851549578,144.62346631984383,-1.5923322172976953,0.029667056851549578,964.44077064972,-127.00487409868128,0.725746443459002,144.62346631984383,-1.5923322172976953,0.029667056851549578,23.0,35.17353289166334,1.174403836953598E10,0.0,0.3560268626663547,5.248477019325218E7,0.0,0.0,0.0,0.0,0.0,0.0,-22.56600619447851,44983.5958377917,536730.0495965562,732.6186249315234,2.225344513364689E7,1.3759108012559187,-0.6758586244864081,10.0,163.0,1530.661,-2311.148
Finger3,82.2062568514494,368.22560050073366,74.32843336544609,411.0280650000405,40.058228199150335,91.2398480666426,-5.668797091956371,40.058228199150335,91.2398480666426,-5.668797091956371,40.058228199150335,91.2398480666426,-5.668797091956371,40.058228199150335,91.2398480666426,-5.668797091956371,1.0,0.8405973496153042,5792888.348707636,0.0,0.3553017820901422,8667796.846892284,1.0,0.8299236594492507,3.9926375443225645E7,0.0,0.0,0.0,-498.8896966470588,4609.088767282853,108338.18736845939,329.14766802828694,1505557.3579210464,-1.6929669809389285,0.23758567924619697,0.0,17.0,-15.206909,-878.47595
Finger3,154.2730384303561,674.0109941628293,161.59616318925876,751.7941359505612,52.121707934618826,166.63245711396416,-10.322111959430828,52.121707934618826,166.63245711396416,-10.322111959430828,52.121707934618826,166.63245711396416,-10.322111959430828,52.121707934618826,166.63245711396416,-10.322111959430828,1.0,1.0170075331431248,8942185.992716102,0.0,0.0,0.0,1.0,0.8412225902376353,1.350075309605887E8,0.0,0.0,0.0,-812.909111764706,8106.203711600339,490733.27590207255,700.5235726955036,4771768.217817319,-1.3367497712751468,0.19985991524055113,1.0,17.0,350.9674,-1803.5797
Finger3,230.69501071837277,522.6147876430932,66.60250809486047,584.3925030814206,73.36725801851617,-0.24039288874611175,1.5961472349859522E-4,73.36725801851617,-0.24039288874611175,1.5961472349859522E-4,73.36725801851617,-0.24039288874611175,1.5961472349859522E-4,73.36725801851617,-0.24039288874611175,1.5961472349859522E-4,189.0,282.9608921487703,8.660312216799034E10,0.0,0.33371637295460566,3.0600082109805457E7,1.0,0.839342933313909,8.629337085800041E7,0.0,0.0,0.0,-3.256055579836712,49185.43440359933,25814.40283518648,160.66861185429616,1.1675461692866283E7,29.231237896790432,-2.031147159380494,249.0,1776.0,1049.7803,-1298.0255
Finger3,222.3369156313053,655.189346035794,73.71617474147425,752.5710707171257,0.0,0.0,0.0,0.0,0.0,0.0,0.0,0.0,0.0,0.0,0.0,0.0,0.0,0.0,0.0,0.0,0.0,0.0,0.0,0.0,0.0,0.0,0.0,0.0,-75.67526255270273,22176.25180659065,504242.6763659983,710.1004692055894,9472030.72659796,-0.43838910324465585,-0.6512623220221454,7.0,74.0,977.4719,-1698.1384
Finger3,98.77665808236965,280.43919452749077,84.48512299881514,380.86178541435214,301.930469089127,-3.8737746150151793,0.025767564122584408,301.930469089127,-3.8737746150151793,0.025767564122584408,301.930469089127,-3.8737746150151793,0.025767564122584408,301.930469089127,-3.8737746150151793,0.025767564122584408,21.0,33.04937377095402,6.999071628283822E9,1.0,0.826270205459619,6.736288927732755E7,0.0,0.0,0.0,0.0,0.0,0.0,-18.470392745945936,30109.579481079854,220883.86122979622,469.98283078193,8165811.884146763,-0.979531532833267,-0.19050417061553918,9.0,148.0,777.5665,-1014.5325
Finger3,87.52236243542687,453.1541775379016,184.79294132898352,491.14496259765167,460.3775252060584,-78.26458536430414,0.4050688818679191,460.3775252060584,-78.26458536430414,0.4050688818679191,399.57067948067106,-11.532477603980908,0.08878194405164364,399.57067948067106,-11.532477603980908,0.08878194405164364,12.0,17.256338003246235,2.431337174722505E9,0.0,0.0,2960105.144029272,0.0,0.0,0.0,0.0,0.0,0.0,-78.88547252977943,22096.78293308818,214479.47532139768,463.1192884359252,7453005.3381765485,1.1397122497867453,-0.28410126114878925,11.0,136.0,1075.6622,-1326.3245
Finger3,60.36877183411346,283.82397480881576,96.76382997679173,330.6611022887416,257.3844807424159,10.287568239608277,-2.9979912959808033,260.7269729817792,3.5330460262064776,-0.17138193104447907,260.7269729817792,3.5330460262064776,-0.17138193104447907,260.7269729817792,3.5330460262064776,-0.17138193104447907,2.0,3.6499782622101318,2.0181819131332922E8,0.0,0.36208044443012527,4439305.203410233,1.0,1.8312769479308844,9.621619373200212E7,0.0,0.0,0.0,-8.557532605263129,9379.318894231363,287938.0540884789,536.5985968006988,2674345.263266487,-1.4166437714554507,0.2973118856263545,2.0,38.0,838.19275,-793.3777
Finger3,80.8179446784401,315.1304579788655,90.21741286224527,418.4028304492557,209.55317959968625,3.225014344858721,-0.01684144921216091,209.55317959968625,3.225014344858721,-0.01684144921216091,209.55317959968625,3.225014344858721,-0.01684144921216091,209.55317959968625,3.225014344858721,-0.01684144921216091,14.0,18.541404310856645,8.025165281523947E9,1.0,0.82795847291839,5.0781422901519716E7,1.0,0.8268078597534617,3.109124360161869E7,0.0,0.0,0.0,-56.291812370078716,41052.808887115665,593345.4054236832,770.2891700028524,1.8816977064479634E7,-0.14109060875934043,-0.23474346186082626,9.0,127.0,1609.6161,-2020.1019
Finger3,73.6767252892475,264.7808007889531,230.92917629601425,335.43946422217135,511.6667673452114,-16.35322724490254,0.21137561528528437,511.6667673452114,-16.35322724490254,0.21137561528528437,511.6667673452114,-16.35322724490254,0.21137561528528437,511.6667673452114,-16.35322724490254,0.21137561528528437,6.0,8.49653245601629,1.2101623779333322E9,0.0,0.8023200931206179,2.1741277389690198E7,1.0,0.8314519544154141,3.3550610318373784E7,0.0,0.0,0.0,-294.5429505111112,15016.937282848186,312580.2459507918,559.0887639282262,5244078.397151033,-1.0830336419727422,-0.03030350778657637,3.0,54.0,550.7721,-1323.8068
Finger3,40.76521563084734,444.59064801982953,76.83080645850023,486.8457474438387,78.68118645599452,3.894191126897823,-0.016863993947673683,78.68118645599452,3.894191126897823,-0.016863993947673683,78.68118645599452,3.894191126897823,-0.016863993947673683,78.68118645599452,3.894191126897823,-0.016863993947673683,22.0,34.035530742156105,4.169291263310034E9,0.0,NaN,0.0,1.0,0.835228615322122,5.4185315224821106E7,0.0,0.0,0.0,-54.230894160583915,32761.055030334257,338658.24564289715,581.9435072607109,1.1620066518773094E7,-0.18691264344669323,-0.6142348740616917,7.0,137.0,1023.7976,-1532.2723
Finger3,175.6179875672011,477.20892753254896,66.14352065778348,506.3152292100307,50.813859356372205,-0.13253894390231602,7.945765964447891E-5,50.813859356372205,-0.13253894390231602,7.945765964447891E-5,50.813859356372205,-0.13253894390231602,7.945765964447891E-5,50.813859356372205,-0.13253894390231602,7.945765964447891E-5,0.0,0.0,0.0,0.0,0.35644051196318205,1.2176855693205312E7,1.0,0.8207178326783121,6.352037454580251E7,0.0,0.0,0.0,0.0,0.0,0.0,0.0,0.0,0.0,0.0,0.0,0.0,0.0,0.0
Finger3,115.51513743658921,293.48167784580176,66.46495801663882,271.22644639859345,74.09974618978845,46.00933774488533,-2.0880882238328695,74.09974618978845,46.00933774488533,-2.0880882238328695,74.09974618978845,46.00933774488533,-2.0880882238328695,74.09974618978845,46.00933774488533,-2.0880882238328695,1.0,0.9290589959541392,410337.8855188836,1.0,1.7871827774908737,8.286096943238306E7,0.0,0.0,0.0,2.0,3.472363294392535,2.9862586324355465E8,-437.8280639090909,5344.691326874233,62181.87292278415,249.3629341397477,1432319.5224965485,-0.9620296342863095,0.8163447485709231,2.0,22.0,19.033813,-709.2865
Finger3,77.82072076322802,309.9011344160619,189.2125581278092,327.101633431327,311.34653881278564,-5.58125696970783,0.03712338739579063,311.34653881278564,-5.58125696970783,0.03712338739579063,311.34653881278564,-5.58125696970783,0.03712338739579063,311.34653881278564,-5.58125696970783,0.03712338739579063,22.0,35.10839595634027,8.706648144759693E9,0.0,0.0,1304459.81761284,0.0,0.0,0.0,0.0,0.0,0.0,-91.40510721527777,23935.222442697974,162660.5012502755,403.311915581818,6104616.822697094,-0.271422444390657,-0.11359501250626641,9.0,144.0,747.55554,-1067.4042
Finger3,221.96855452606331,496.87549606872597,82.68359608080507,537.5710398924198,62.985838427352064,7.562348369381596,-0.04873782674416027,62.985838427352064,7.562348369381596,-0.04873782674416027,62.985838427352064,7.562348369381596,-0.04873782674416027,62.985838427352064,7.562348369381596,-0.04873782674416027,11.0,16.602697817843115,6.311850145162058E9,0.0,0.8052503409532525,5.636683966224991E7,1.0,0.8346896881028749,7.507646162737447E7,0.0,0.0,0.0,-24.838912364285697,31542.366094469464,474861.0747313714,689.1016432511037,1.3352400885546496E7,-0.30080413861178457,-0.6236164435597776,7.0,112.0,1275.5676,-1681.2195
Finger3,312.2604083823586,879.209202801964,202.04873179640427,922.9088555413871,889.7112210729597,-141.5687579185892,4.830678306831942,889.7112210729597,-141.5687579185892,4.830678306831942,889.7112210729597,-141.5687579185892,4.830678306831942,889.7112210729597,-141.5687579185892,4.830678306831942,0.0,0.0,0.0,0.0,0.3562351374150268,3.9153078296957225E7,1.0,0.8357086715739114,2.3059722071846506E8,0.0,0.0,0.0,-79.56236921212124,19280.341919960458,1623700.3403380243,1274.2450079706118,1.3290117029572435E7,-1.380474581732259,-0.15936920566888835,2.0,33.0,1768.3319,-2101.071
Finger3,123.92245970357313,583.1310971443305,138.15874317869498,699.3093645059338,261.32390556696237,17.496643170479047,-0.4143026331616966,261.32390556696237,17.496643170479047,-0.4143026331616966,0.0,0.0,0.0,261.32390556696237,17.496643170479047,-0.4143026331616966,2.0,3.577945409105932,4.1104321609806526E8,0.0,0.35437545337864945,2.462797347829826E7,1.0,0.8353300690363418,1.0417463655559851E8,0.0,0.0,0.0,-0.961044571428556,13887.107849074124,777905.9408523408,881.9897623285323,6647626.689653048,-1.266943964059209,-0.42152620721196826,1.0,35.0,1143.4387,-1503.2684
Finger3,185.8049632180225,534.2532955264642,91.78444220071137,619.6673677303401,662.6318276184466,12.16190777814063,-5.749818412433456,177.01278113244234,9.300346804980109,-0.0831253127355236,177.01278113244234,9.300346804980109,-0.0831253127355236,177.01278113244234,9.300346804980109,-0.0831253127355236,14.0,17.90137756564836,4.1835223808950987E9,1.0,0.8306205429394427,1.1057975153208254E8,0.0,0.0,0.0,14.0,17.73151238519852,1.0013755247346214E10,-124.23107754743592,28838.63048797585,669808.6547918428,818.4183861521213,1.331867392073414E7,-1.1271073315855555,-0.13360152126888553,5.0,78.0,1148.172,-1702.771
Finger3,76.61994974977162,311.586919158849,139.6126107795133,389.9715983494729,0.0,0.0,0.0,0.0,0.0,0.0,0.0,0.0,0.0,0.0,0.0,0.0,0.0,0.0,0.0,0.0,0.0,0.0,0.0,0.0,0.0,0.0,0.0,0.0,0.0,0.0,0.0,0.0,0.0,0.0,0.0,0.0,0.0,0.0,0.0
Finger3,86.13504792762393,322.33341681230246,147.5516191656715,359.31701237968133,533.3373685105066,-8.929824321980234,0.05136468269561123,533.3373685105066,-8.929824321980234,0.05136468269561123,533.3373685105066,-8.929824321980234,0.05136468269561123,533.3373685105066,-8.929824321980234,0.05136468269561123,11.0,18.545162503480334,4.848540064282043E9,0.0,0.0,0.0,1.0,0.8313905138435146,3.1658332299795736E7,23.0,36.69176270397986,7.987913511648873E9,-30.10568157462684,32629.794040128058,363676.1511772793,603.055678339305,1.2118386851236653E7,0.5686731222863131,-0.4831686228321034,8.0,134.0,1171.637,-1775.3815
Finger3,34.49566788502264,263.1203879880953,150.4102730852767,330.2563193980257,168.99833955990425,48.6321575147083,-3.4181535616325327,168.99833955990425,48.6321575147083,-3.4181535616325327,168.99833955990425,48.6321575147083,-3.4181535616325327,168.99833955990425,48.6321575147083,-3.4181535616325327,1.0,0.9841368688251055,227471.09872083852,1.0,0.9032413535165666,4.447632958701646E7,0.0,0.0,0.0,2.0,3.6693556900910522,2.40063406387462E8,-445.2692683333333,4381.286106004594,86607.46468626571,294.29146213620555,1233910.3651889553,-0.20724464418703947,1.0196787090408197,1.0,18.0,254.0863,-753.90015
Finger3,30.000237272647503,450.34687025423693,76.73840153884915,540.2818893524519,369.6050491659523,-15.524729936670496,0.07604742437248291,158.12328949872426,6.733117398347559,-0.05614642837832151,369.6050491659523,-15.524729936670496,0.07604742437248291,0.0,0.0,0.0,11.0,17.79972167575474,9.02686409910741E9,0.0,0.35462329239602347,1.3891007468839783E7,0.0,0.0,0.0,0.0,0.0,0.0,-57.8943027538983,34776.91861407222,412353.864619498,642.147852616123,1.216094319884299E7,-1.243853915106447,0.13106818982718496,7.0,118.0,1092.6819,-1216.9556
Finger3,177.335948511731,393.7311921473687,73.31992351611771,433.3778025929916,397.0010972084144,-5.960441761848685,0.031198948600712317,397.0010972084144,-5.960441761848685,0.031198948600712317,397.0010972084144,-5.960441761848685,0.031198948600712317,397.0010972084144,-5.960441761848685,0.031198948600712317,23.0,33.373484445481445,5.303002806191413E9,0.0,0.0,2296601.1292068097,0.0,0.0,0.0,0.0,0.0,0.0,-31.688843292000037,31153.09194979649,217582.16332682516,466.4570326694895,9030408.985422187,0.08042424709048301,0.07358154356322143,8.0,165.0,1022.7905,-1272.6471
Finger3,131.91716766925026,733.9593857333531,62.598803008141424,806.1920200356681,290.07080329453083,-1.1183047947257592,0.05219877377589999,290.07080329453083,-1.1183047947257592,0.05219877377589999,290.07080329453083,-1.1183047947257592,0.05219877377589999,0.0,0.0,0.0,0.0,0.0,0.0,0.0,0.3568927069750468,3.097454128192158E7,1.0,0.8329087510821955,1.6197104660843694E8,11.0,17.100441296804572,6.018688442736031E9,-35.83394435280903,33497.233408247004,701713.6197495327,837.6834842286988,1.5541141210211704E7,-0.9191421750853421,-0.23254283201904385,5.0,89.0,1459.5612,-1778.7048
Finger3,167.53147611107008,546.9838715908185,107.23301484396875,574.7031116458032,337.09480251699415,3.4035737833012263,-0.045494232588000116,337.09480251699415,3.4035737833012263,-0.045494232588000116,337.09480251699415,3.4035737833012263,-0.045494232588000116,337.09480251699415,3.4035737833012263,-0.045494232588000116,6.0,8.593310574612058,8.906063324609708E8,0.0,0.3335953812711989,2.9493719557710733E7,0.0,0.0,0.0,0.0,0.0,0.0,-223.05414177999998,19185.013661394816,649333.2040145166,805.8121394062741,8671085.46988628,-1.256199144735042,0.2858928418446732,3.0,50.0,1147.3663,-1336.7981
Finger3,130.45546946150375,315.91028501278635,114.03801229519563,354.9522605968013,367.8838234083414,-0.3048404595147076,-6.083735556928332,367.8838234083414,-0.3048404595147076,-6.083735556928332,367.8838234083414,-0.3048404595147076,-6.083735556928332,367.8838234083414,-0.3048404595147076,-6.083735556928332,28.0,36.92619521102248,4.1255398877543974E9,0.0,0.3538793801892982,6124639.585692314,1.0,0.8400567402743752,3.1531889285734147E7,0.0,0.0,0.0,10.721320304054103,27931.699489461585,198072.60550990535,445.05348612262924,7345946.4418149525,0.19914449881911178,-0.3771042978760123,8.0,148.0,849.37134,-1274.9634
Finger3,203.88731658657815,577.2940184568737,183.72785884708932,615.2003935797087,418.7637304541354,-4.414412615433207,0.04521317568008332,418.7637304541354,-4.414412615433207,0.04521317568008332,418.7637304541354,-4.414412615433207,0.04521317568008332,418.7637304541354,-4.414412615433207,0.04521317568008332,14.0,19.270929339837533,3.045734843256486E9,0.0,0.0,0.0,1.0,0.8316186729414881,9.800335934298524E7,10.0,17.131159892926885,2.307292944631411E9,-50.631884978703745,38442.33071862628,614118.2563567273,783.6569762062527,1.660496963447361E7,-1.2467435948924648,-0.3005279953403561,6.0,108.0,1134.0729,-1464.5966
Finger3,164.10043302949592,588.6226682836009,65.8859424581118,635.6261575898862,240.4215643826201,-2.3134865668070574,0.061470541827209235,240.4215643826201,-2.3134865668070574,0.061470541827209235,240.4215643826201,-2.3134865668070574,0.061470541827209235,240.4215643826201,-2.3134865668070574,0.061470541827209235,0.0,0.0,0.0,0.0,0.8219086570445703,2.1443838182394472E8,1.0,0.8501016119629762,1.0713511547533037E8,13.0,16.97685179634525,3.309530713653248E9,-105.62770099255323,29235.579626555966,490137.1224035366,700.0979377226707,1.1764023125085158E7,-0.921699694444897,-0.3338988704044849,6.0,94.0,980.19104,-1565.8081
Finger3,102.54182639114713,500.9475386746927,80.45827560496765,556.5245291511691,32.039226767774835,14.004177815427028,-0.11117154712858968,32.039226767774835,14.004177815427028,-0.11117154712858968,32.039226767774835,14.004177815427028,-0.11117154712858968,32.039226767774835,14.004177815427028,-0.11117154712858968,11.0,17.611197886790098,5.306606400699338E9,0.0,0.0,3873957.911652307,1.0,0.8376961306796633,7.355039514789742E7,0.0,0.0,0.0,-67.42960445370366,38341.349958299135,681679.3587381007,825.638758015938,1.8391220851067048E7,-0.7212145502862031,-0.5383495113042596,5.0,108.0,1393.5974,-1852.3224
Finger3,203.99224330411508,739.1126321385726,99.62116145119303,772.8624391378171,102.95397345431275,0.0847158843466218,0.017749292689587692,102.95397345431275,0.0847158843466218,0.017749292689587692,102.95397345431275,0.0847158843466218,0.017749292689587692,102.95397345431275,0.0847158843466218,0.017749292689587692,26.0,34.40705210339955,1.0577948098480764E10,0.0,0.0,0.0,1.0,0.8418148676730498,1.679036291589318E8,0.0,0.0,0.0,-66.49246231918605,48797.32746854747,505486.07148914074,710.9754366285383,2.1974152514109213E7,-0.06164299054558331,-0.3687064888327224,11.0,172.0,1340.9271,-1868.5364
Finger3,71.19394734485671,267.4673749787615,157.6138668515488,276.98429317403094,270.1073682175188,-46.230166896678156,1.1667646846306354,270.1073682175188,-46.230166896678156,1.1667646846306354,270.1073682175188,-46.230166896678156,1.1667646846306354,270.1073682175188,-46.230166896678156,1.1667646846306354,11.0,16.727430187974694,2.4272418967523456E9,0.0,0.3345528175460266,6337734.670526964,1.0,0.832646393114014,2.1905146281914458E7,0.0,0.0,0.0,-181.67095153750003,15718.559917125287,190796.7803351054,436.8029078830696,4426274.292053338,-0.7620245726388104,-0.3068721356586751,7.0,80.0,622.5769,-1104.6661
Finger3,187.38974600046475,442.31476686868325,87.79902470583505,484.105512909696,67.42989003986418,-0.27164424604817405,2.1584526219896641E-4,0.0,0.0,0.0,67.42989003986418,-0.27164424604817405,2.1584526219896641E-4,0.0,0.0,0.0,0.0,0.0,0.0,0.0,0.3572189915224307,1.1128150555363E7,1.0,0.8414762948505793,5.8694274463294454E7,0.0,0.0,0.0,0.0,0.0,0.0,0.0,0.0,0.0,0.0,0.0,0.0,0.0,0.0
Finger3,161.4460591523059,540.7377590843029,54.633402230509795,593.8605089624515,90.4992245323732,-0.3515562637578151,2.5412726196171864E-4,90.4992245323732,-0.3515562637578151,2.5412726196171864E-4,90.4992245323732,-0.3515562637578151,2.5412726196171864E-4,90.4992245323732,-0.3515562637578151,2.5412726196171864E-4,0.0,0.0,0.0,0.0,0.0,4230674.54053933,0.0,0.0,0.0,0.0,0.0,0.0,0.0,0.0,0.0,0.0,0.0,0.0,0.0,0.0,0.0,0.0,0.0
Finger3,231.75162464503552,553.7037336625327,157.51721222875548,579.6200235539995,608.6096685438599,19.142934362775122,-11.698326902020199,608.6096685438599,19.142934362775122,-11.698326902020199,608.6096685438599,19.142934362775122,-11.698326902020199,608.6096685438599,19.142934362775122,-11.698326902020199,5.0,8.577093095437645,1.0866649979103618E9,0.0,0.3569682982182047,1.566499489262286E7,0.0,0.0,0.0,0.0,0.0,0.0,-70.64814875882351,21927.5605801831,494737.1281044832,703.3755242432617,8517576.851328911,-1.1923888565539467,-0.05311481605174438,4.0,68.0,1049.176,-1337.7045
Finger3,153.2471902998039,521.2111577959258,164.39391701479775,598.9580304925433,384.68016113597014,-4.538935508601554,0.053887126291706,384.68016113597014,-4.538935508601554,0.053887126291706,384.68016113597014,-4.538935508601554,0.053887126291706,384.68016113597014,-4.538935508601554,0.053887126291706,14.0,18.12087023409366,4.240788700275112E9,0.0,0.0,4172873.3202254395,1.0,0.8427776203500102,8.058208530648129E7,0.0,0.0,0.0,-85.07588575555556,29319.91492843281,487986.47091983864,698.5602843848473,1.105448729669529E7,-1.2812550332789616,-0.008095454613795162,6.0,90.0,1019.5679,-1356.5369
Finger3,108.92209233356856,264.4270324956503,82.8581335591323,300.69809766113104,288.6302666613931,-2.293892596025117,0.011271041777094704,288.6302666613931,-2.293892596025117,0.011271041777094704,0.0,0.0,0.0,288.6302666613931,-2.293892596025117,0.011271041777094704,0.0,0.0,0.0,0.0,0.35090172827886895,4151892.2628681283,1.0,0.8362203627532431,2.2266679571667507E7,26.0,36.56845487326255,1.1915123009734539E10,14.224183249673242,30811.447863545443,214258.17179160117,462.8802996365272,8197107.909824264,-0.5706882470165091,-0.18322240264057074,9.0,153.0,857.3273,-1082.9132
Finger3,126.08096821721409,400.11002194672477,146.53341642907426,438.583511732758,444.8106498693786,-6.391021728515625,-6.391021728515625,499.821349519093,-10.498800160043203,0.08855154109185182,444.8106498693786,-6.391021728515625,-6.391021728515625,444.8106498693786,-6.391021728515625,-6.391021728515625,11.0,17.172891434378705,2.246449362533449E9,0.0,0.0,2403114.8933387552,0.0,0.0,0.0,0.0,0.0,0.0,-86.7995864580851,25219.615694588694,367345.5387264181,606.0903717486511,8763976.517107055,-0.4505537466909342,0.5322724022191971,6.0,94.0,1345.9625,-1096.0052
Finger3,243.2224397799194,674.0031926184364,149.1236432650735,742.974731036289,340.9419278223954,-8.022194111357578,0.16574090266058583,340.9419278223954,-8.022194111357578,0.16574090266058583,340.9419278223954,-8.022194111357578,0.16574090266058583,340.9419278223954,-8.022194111357578,0.16574090266058583,5.0,8.438207915905043,2.7605245818624635E9,0.0,0.33447888343333837,4.773938106680262E7,0.0,0.0,0.0,0.0,0.0,0.0,-9.992166726027367,24858.844065744546,596085.066822092,772.0654550114855,1.0925353638710398E7,-0.7458234059715232,-0.5962109731615453,3.0,73.0,1072.7417,-1708.9142
Finger3,46.21328103444696,294.39572508129874,110.59454741633955,322.9532466716153,303.31080708097466,-4.252094434455728,-0.00854569772330116,303.31080708097466,-4.252094434455728,-0.00854569772330116,303.31080708097466,-4.252094434455728,-0.00854569772330116,303.31080708097466,-4.252094434455728,-0.00854569772330116,3.0,3.935519968686084,2.2349045228411728E8,0.0,0.0,1105847.8586808601,0.0,0.0,0.0,0.0,0.0,0.0,-337.768554969697,7666.387993358041,162196.093475025,402.7357613560348,2238826.944574011,-1.5577198355487987,0.09558441680267632,3.0,33.0,263.45215,-901.23596
Finger3,218.21060044833465,840.9684975486538,245.75905308003234,983.1451354205539,164.9254806396475,197.58003188115617,-12.409812329035475,164.9254806396475,197.58003188115617,-12.409812329035475,164.9254806396475,197.58003188115617,-12.409812329035475,164.9254806396475,197.58003188115617,-12.409812329035475,0.0,0.0,0.0,0.0,0.35745891587703044,4.637562297068635E7,1.0,0.8387821352639433,2.202081606776475E8,0.0,0.0,0.0,-1155.405188235294,11109.538264123483,672218.7494765668,819.8894739393638,8500228.422360161,-1.228163258768443,0.4209535450856148,1.0,17.0,351.67236,-2186.6729
Finger3,43.063261888369894,375.50806951008923,87.65793846234709,410.67644129716996,338.1740568016721,3.6991650128973674,-0.1278642635477043,338.1740568016721,3.6991650128973674,-0.1278642635477043,338.1740568016721,3.6991650128973674,-0.1278642635477043,338.1740568016721,3.6991650128973674,-0.1278642635477043,5.0,8.400507398619505,8.808935092682571E8,0.0,0.0,2247419.0305807246,1.0,0.8239917087700503,4.165965191099558E7,0.0,0.0,0.0,-11.647339815818205,17193.916831909843,505975.5891098753,711.3196110820194,6839160.765323156,-1.0079942874826913,0.44194643809574735,5.0,55.0,1380.9082,-1022.287
Finger3,113.05830527949867,608.0530105925895,90.74276526455542,631.9843819395165,320.1299841858349,-10.08276741835948,0.15125994189523206,320.1299841858349,-10.08276741835948,0.15125994189523206,320.1299841858349,-10.08276741835948,0.15125994189523206,320.1299841858349,-10.08276741835948,0.15125994189523206,13.0,17.932206459271526,8.468367164678975E8,0.0,0.0,0.0,1.0,0.8356240611245254,1.0391045402221975E8,0.0,0.0,0.0,-119.09754929358974,18160.324497117683,295554.65467522107,543.6493857949451,6012048.652415045,-0.39117816522812365,-0.5884783120888386,5.0,78.0,741.21094,-1482.3212
Finger3,90.21425380950718,395.0390330293115,142.03728228778695,410.78998378877276,464.317737811034,-6.277635311295569,0.045447904317789556,464.317737811034,-6.277635311295569,0.045447904317789556,464.317737811034,-6.277635311295569,0.045447904317789556,464.317737811034,-6.277635311295569,0.045447904317789556,11.0,18.51784319241626,2.2509198142703023E9,0.0,0.0,0.0,0.0,0.0,0.0,0.0,0.0,0.0,-42.971801686868645,29992.03162536832,471322.68254644057,686.5294476906585,1.160634239045868E7,-0.9684774150897377,-0.034275808523787386,5.0,99.0,1343.6462,-1269.6259
Finger3,206.2908854498844,563.3390622530028,105.16709860650352,624.1363301943759,76.58308770206031,3.070757269615939,-0.006171229374593246,76.58308770206031,3.070757269615939,-0.006171229374593246,76.58308770206031,3.070757269615939,-0.006171229374593246,76.58308770206031,3.070757269615939,-0.006171229374593246,25.0,35.108711992605755,1.1999567205705513E10,0.0,0.3345931953469876,3.3172736318286266E7,1.0,0.8311644436902907,1.0009263392247039E8,0.0,0.0,0.0,-71.25687835460525,39727.7158990051,423894.60986993066,651.0718930117707,1.6359479598937463E7,-0.1296416892051906,-0.15319172254758057,7.0,152.0,1452.8137,-1511.2244
Finger3,168.33958637262273,488.08899505828856,53.94691083721505,549.1918859109151,490.6706356585139,-76.52634605096887,2.3244520601332965,239.48700710190428,-2.6595000077237216,0.02201288390107725,239.48700710190428,-2.6595000077237216,0.02201288390107725,239.48700710190428,-2.6595000077237216,0.02201288390107725,0.0,0.0,0.0,0.0,0.0,0.0,0.0,0.0,0.0,0.0,0.0,0.0,-28.584646236170197,27869.09396523735,223271.41080634482,472.51604290896285,7953739.570658463,-0.15903857327636972,-0.7110038891360279,7.0,141.0,696.698,-1217.6605
Finger3,56.30743152750144,315.80443151527413,97.8440447093679,379.76897404182876,89.82675907359953,4.397232398754753,-0.026560201990365573,89.82675907359953,4.397232398754753,-0.026560201990365573,89.82675907359953,4.397232398754753,-0.026560201990365573,89.82675907359953,4.397232398754753,-0.026560201990365573,23.0,32.99714102807489,3.9527561786455007E9,0.0,0.0,1594098.91332169,1.0,0.8469737659364178,3.1249456246245828E7,0.0,0.0,0.0,-42.10775378551725,32219.859963819334,247317.22334792872,497.3099871789513,8974478.222176896,-0.9137489645862233,0.25663639047121367,5.0,145.0,971.0266,-1011.81335
Finger3,163.5218126400219,546.4454248215959,59.176860473603895,630.3080258246133,521.8885522860028,-4.314149903203344,0.026449073301378245,521.8885522860028,-4.314149903203344,0.026449073301378245,521.8885522860028,-4.314149903203344,0.026449073301378245,521.8885522860028,-4.314149903203344,0.026449073301378245,11.0,18.38255665265444,1.2545521920658957E10,0.0,0.0,4662057.149626467,1.0,0.844964615861718,9.153728365114847E7,0.0,0.0,0.0,-28.82124946764708,40229.29713525958,780078.5538323123,883.2205578632737,1.9823481108570907E7,-0.749174373494673,-0.31164332389322547,6.0,102.0,1485.3424,-2134.7075
Finger3,386.1231759869773,841.3032117123523,192.13416695264357,931.6442223744041,472.84963272359164,2.518792320247485,-0.003662879032081179,472.84963272359164,2.518792320247485,-0.003662879032081179,472.84963272359164,2.518792320247485,-0.003662879032081179,841.4765761017375,-118.24403924998978,5.484323328135019,7.0,9.47807306374203,1.9530287722123282E9,0.0,0.35714475754198977,3.676557796896297E7,0.0,0.0,0.0,6.0,8.493140222383397,5.855518863972637E9,-368.5304589583334,26716.644940516584,1269857.4427942347,1126.8795156511785,1.701857364026836E7,-1.2885996941683713,0.23691005989896985,3.0,48.0,1481.2134,-2174.9907
Finger3,226.93817430124528,498.2456233341388,165.26245645054235,577.6070388716981,482.28790509986356,-6.766331915340345,0.07753410057810672,482.28790509986356,-6.766331915340345,0.07753410057810672,482.28790509986356,-6.766331915340345,0.07753410057810672,482.28790509986356,-6.766331915340345,0.07753410057810672,11.0,17.238339183771863,1.7450337967950153E9,0.0,0.0,0.0,0.0,0.0,0.0,0.0,0.0,0.0,-76.58340684375004,30186.8347251576,638731.8302820065,799.2070008965178,1.2915931910979997E7,-1.3844943550022855,0.20458628545263835,3.0,80.0,1273.352,-1299.0326
Finger3,263.3657313671226,805.1378276080927,204.89278475737422,850.0716751573414,495.3137335108295,2.370497381030418,-0.01698724172254984,495.3137335108295,2.370497381030418,-0.01698724172254984,495.3137335108295,2.370497381030418,-0.01698724172254984,495.3137335108295,2.370497381030418,-0.01698724172254984,2.0,3.759751794810958,6.445308922748449E8,0.0,0.0,7521751.638593441,1.0,0.8385763784235026,1.927168240369696E8,6.0,5.4529619754618395,1.4462909235607315E7,-1.532651750000099,16848.86706850894,1348277.5331099504,1161.1535355455585,1.0629824317446774E7,-1.2817224800011051,-0.12456599128372972,2.0,32.0,1698.8434,-1951.117
Finger3,127.87085989840486,334.1272934482077,66.84414606856487,364.0514782633927,45.31092567840403,-0.19063074192345764,1.5357111647423057E-4,45.31092567840403,-0.19063074192345764,1.5357111647423057E-4,0.0,0.0,0.0,45.31092567840403,-0.19063074192345764,1.5357111647423057E-4,0.0,0.0,0.0,0.0,0.0,1672083.81704464,0.0,0.0,0.0,0.0,0.0,0.0,0.0,0.0,0.0,0.0,0.0,0.0,0.0,0.0,0.0,0.0,0.0
Finger3,103.4891237840592,317.92824063534135,71.8993528347297,340.4128030313743,346.49153288717366,-1.7568917328829485,-6.025626052733046E-4,346.49153288717366,-1.7568917328829485,-6.025626052733046E-4,346.49153288717366,-1.7568917328829485,-6.025626052733046E-4,346.49153288717366,-1.7568917328829485,-6.025626052733046E-4,23.0,36.50272767994467,6.808298417645622E9,0.0,0.3540999155749873,5448142.9264178155,0.0,0.0,0.0,0.0,0.0,0.0,22.918065750694456,31212.308932262324,292824.70522350713,541.1327981406293,1.0526784701776428E7,0.053332801930392915,-0.3273066397477366,7.0,144.0,1116.449,-1447.6776
Finger3,280.95309047287236,961.8923458129226,65.16153954851767,1042.6623696145687,354.3275948686669,-0.7360430532589817,0.06334925061821295,354.3275948686669,-0.7360430532589817,0.06334925061821295,354.3275948686669,-0.7360430532589817,0.06334925061821295,354.3275948686669,-0.7360430532589817,0.06334925061821295,13.0,17.345650243717724,3.170789019556396E9,0.0,0.0,1.4143916001264038E7,0.0,0.0,0.0,0.0,0.0,0.0,-39.89735260240967,38761.19835935995,1123275.1079410485,1059.8467379489587,2.336791652692329E7,-0.8712987200402003,-0.201907468583421,3.0,83.0,1743.6584,-2268.2463
Finger3,225.71728649612885,535.5020307243141,131.20771261797918,581.2321535828007,603.4650003030998,-8.078033447265625,-8.078033447265625,603.4650003030998,-8.078033447265625,-8.078033447265625,603.4650003030998,-8.078033447265625,-8.078033447265625,603.4650003030998,-8.078033447265625,-8.078033447265625,7.0,9.093442317184838,5.1455773463254386E8,0.0,0.0,3301760.1019651596,0.0,0.0,0.0,0.0,0.0,0.0,-134.7985851818182,14394.714764380531,319880.1652300291,565.5794950579707,4736765.838304185,-1.0046701189155447,-0.47119775226589405,4.0,55.0,703.44543,-1357.6447
Finger3,161.27751005019192,891.3934462983797,41.88494306712672,970.958614233038,354.64857259039854,7.443714079948904,-0.06604045794238989,354.64857259039854,7.443714079948904,-0.06604045794238989,354.64857259039854,7.443714079948904,-0.06604045794238989,354.64857259039854,7.443714079948904,-0.06604045794238989,5.0,8.091955270853255,3.7982264990596685E9,0.0,0.3560794483068268,4.1719257112133846E7,1.0,0.8414102086666351,2.384932913642463E8,0.0,0.0,0.0,16.68763749999994,32067.879391874005,1265644.0345883553,1125.0084597852388,2.0054583395008493E7,-1.0114441293140324,-0.3712454046583926,4.0,64.0,1704.0802,-2262.6067
Finger3,182.61712702605453,539.3747382183532,61.32039426910649,583.3424245520761,545.1810096321703,-92.41096711525392,3.7972998922907664,545.1810096321703,-92.41096711525392,3.7972998922907664,545.1810096321703,-92.41096711525392,3.7972998922907664,545.1810096321703,-92.41096711525392,3.7972998922907664,5.0,8.941252993768334,3.1734721208729744E9,0.0,0.0,3753989.1754579605,0.0,0.0,0.0,0.0,0.0,0.0,-29.603896971830977,28026.54440914747,737615.8228989325,858.845633917372,1.3051952581956126E7,-1.271427296671527,-0.3321361381337186,4.0,71.0,1113.9313,-1685.2478
Finger3,95.11327785019792,336.7462668313808,99.1708688211097,394.8761372932623,403.9458791317285,-10.206134796142578,-10.206138610839844,0.0,0.0,0.0,491.28625150170956,-1.7928372126719978,-0.007490274071868752,0.0,0.0,0.0,11.0,16.583843091075604,1.9216575928564055E9,0.0,0.0,1733849.5500869842,0.0,0.0,0.0,10.0,16.40345253792715,3.4402476685241857E9,-46.95151328214282,40418.8579825839,689887.496452814,830.594664353687,1.9237631669717852E7,-0.7316915480796342,0.21618936297576224,6.0,112.0,1586.1511,-1664.3005
Finger3,311.20526495171396,822.0122872402262,110.46321452713212,909.827939186831,460.2005928124627,-3.569116332145086,0.07545926512055168,460.2005928124627,-3.569116332145086,0.07545926512055168,460.2005928124627,-3.569116332145086,0.07545926512055168,460.2005928124627,-3.569116332145086,0.07545926512055168,13.0,17.384128492445278,3.2002540159872684E9,0.0,0.35614840084590094,4.1340334143830776E7,0.0,0.0,0.0,0.0,0.0,0.0,-23.982892392857206,40858.08250069475,1144884.953045057,1069.992968689541,2.416932671739002E7,-1.2430233471200827,-0.18530497477741778,3.0,84.0,1745.9747,-1971.6614
Finger3,107.10425481415223,451.3544325994782,73.68268696323781,513.7969994401278,93.73836393461806,2.880298111541805,-0.01404216963556637,93.73836393461806,2.880298111541805,-0.01404216963556637,93.73836393461806,2.880298111541805,-0.01404216963556637,0.0,0.0,0.0,0.0,0.0,0.0,0.0,0.0,0.0,0.0,0.0,0.0,0.0,0.0,0.0,-44.120504709677405,31643.695028204576,238252.50079593828,488.11115618877045,9293996.758827979,0.2758000166397032,0.3792869460233086,10.0,155.0,1258.7494,-1167.3065
Finger3,147.67129425422922,410.61927035111125,69.92679884225308,526.7539078681345,562.9208373872452,-12.553237351849475,0.15192625879058141,562.9208373872452,-12.553237351849475,0.15192625879058141,562.9208373872452,-12.553237351849475,0.15192625879058141,562.9208373872452,-12.553237351849475,0.15192625879058141,5.0,8.461578665145602,3.964797114787485E8,1.0,1.7767174000907526,2.7518508479370207E8,0.0,0.0,0.0,0.0,0.0,0.0,-119.7869139044776,20566.556631859967,465564.91278860066,682.323173275392,8007013.897340335,-1.087552969277496,0.2773240993438997,3.0,67.0,1085.9344,-1203.6621
Finger3,155.57203685475278,385.9701365784112,67.180651289886,412.6475019208071,388.1733942423614,-65.25906616639986,3.69079434967756,388.1733942423614,-65.25906616639986,3.69079434967756,388.1733942423614,-65.25906616639986,3.69079434967756,388.1733942423614,-65.25906616639986,3.69079434967756,7.0,8.798880433917217,1.3255417580218801E9,0.0,0.0,0.0,1.0,0.8464293456253837,4.549972975701049E7,13.0,17.87182167405414,4.905133691460045E9,-96.78039855263158,23440.899594878538,449523.57780587324,670.4651950741912,8690030.091424678,-0.9340817859699961,0.4597251782818207,5.0,76.0,1285.8398,-1118.6646
Finger3,153.5741067342146,409.7166958771561,143.8576619170385,444.1589800157811,358.62826093322246,-2.4511737725003115,0.020880558613036726,358.62826093322246,-2.4511737725003115,0.020880558613036726,358.62826093322246,-2.4511737725003115,0.020880558613036726,358.62826093322246,-2.4511737725003115,0.020880558613036726,11.0,16.643150146150546,2.0677467526956403E9,0.0,0.0,2144158.08987136,0.0,0.0,0.0,0.0,0.0,0.0,-163.43779297142856,29946.084815053287,442511.18070456263,665.2151386615932,1.146025509931367E7,-1.0125834654076524,-0.0314859012476892,7.0,98.0,1114.7369,-1368.924
Finger3,148.36746851704262,318.960683469757,101.2183746921167,349.26108407310284,291.98455509622363,-2.151846086491389,0.007385165605871491,291.98455509622363,-2.151846086491389,0.007385165605871491,291.98455509622363,-2.151846086491389,0.007385165605871491,291.98455509622363,-2.151846086491389,0.007385165605871491,23.0,33.92267739877694,1.4214138762374855E10,0.0,0.0,1261343.9513584902,0.0,0.0,0.0,0.0,0.0,0.0,7.926695067188952,38932.25075971608,175902.16238185496,419.4069174225134,9582431.232921533,-0.4404592208897844,-0.3591778711380631,14.0,217.0,734.86633,-1141.3239
Finger3,82.70526715633167,290.22115247497214,122.81445877720195,344.05653768952124,467.6021597444774,-2.6997337293774137,-0.004657328987718312,467.6021597444774,-2.6997337293774137,-0.004657328987718312,467.6021597444774,-2.6997337293774137,-0.004657328987718312,467.6021597444774,-2.6997337293774137,-0.004657328987718312,11.0,18.48622872356382,4.188464046701293E9,0.0,0.0,1508560.8713192197,1.0,0.8456297880545933,2.5204112447280888E7,0.0,0.0,0.0,-57.81479014166667,32973.41840821236,500637.68448333367,707.5575485310956,1.3500485479209438E7,-0.7320757311351165,-0.1991341010022327,6.0,108.0,1160.3577,-1592.9993
Finger3,170.79209806928364,395.9752978624294,117.00687022902676,453.95527958573905,376.9123939151823,-12.083914442214336,0.19965467950825033,376.9123939151823,-12.083914442214336,0.19965467950825033,376.9123939151823,-12.083914442214336,0.19965467950825033,376.9123939151823,-12.083914442214336,0.19965467950825033,6.0,8.612798864293302,5.557906939513551E8,0.0,0.8048573887279724,4.0011688772896245E7,0.0,0.0,0.0,0.0,0.0,0.0,-57.244379274193584,15997.313173237197,337353.6621379917,580.8215406973055,5295020.262901148,-1.0848653160216566,0.13571832812116663,1.0,62.0,958.3374,-1013.324
Finger3,182.79130322258635,470.1583392806221,142.4372823223673,496.23479458470683,128.3710947987188,110.20626890481913,-8.505378112314673,128.3710947987188,110.20626890481913,-8.505378112314673,128.3710947987188,110.20626890481913,-8.505378112314673,128.3710947987188,110.20626890481913,-8.505378112314673,1.0,1.047116421200135,949543.4281466589,0.0,0.0,2560478.5823652027,1.0,0.8370547823112883,6.502004649985753E7,0.0,0.0,0.0,-562.1089407142857,4860.0611248186115,220362.65782441973,469.42801133338827,1910677.3415249812,-1.4737645739146963,0.32905888438201575,1.0,14.0,207.05566,-1133.0658
Finger3,111.23797249091866,312.7325756182337,174.73133430522643,366.2776616596714,473.15211210469465,-9.587724766603728,0.07781517725475018,473.15211210469465,-9.587724766603728,0.07781517725475018,473.15211210469465,-9.587724766603728,0.07781517725475018,473.15211210469465,-9.587724766603728,0.07781517725475018,10.0,16.773214222908116,4.641826831785867E9,0.0,0.35339184126329587,6862551.59687096,0.0,0.0,0.0,0.0,0.0,0.0,-102.9225228736842,24029.27985766664,330448.75868627237,574.8467262551578,8021388.885685491,-0.6585279551358552,-0.29895736122820066,6.0,95.0,792.87415,-1480.4077
Finger3,349.6998070519594,678.9074675056404,76.11270929562257,737.0011841311969,228.81928567677915,1.2545136970828707,0.006929878794828426,228.81928567677915,1.2545136970828707,0.006929878794828426,228.81928567677915,1.2545136970828707,0.006929878794828426,228.81928567677915,1.2545136970828707,0.006929878794828426,22.0,33.752863213904,2.9631132416303555E10,0.0,0.0,5188894.287077092,1.0,1.791635244693226,3.7836804765691453E8,0.0,0.0,0.0,-28.493696470198692,56633.32778653933,720294.75966159,848.7018084472248,2.7488320350177247E7,-0.781211710616128,-0.29648276747866864,8.0,151.0,1448.2819,-1907.309
Finger3,330.3564347448479,780.2755587551401,89.90866931747789,857.7787262682104,870.202454803584,-15.08294677734375,-15.082954406738281,0.0,0.0,0.0,870.202454803584,-15.08294677734375,-15.082954406738281,870.202454803584,-15.08294677734375,-15.082954406738281,11.0,16.646241847895592,3.6639294240848203E9,0.0,0.0,9481148.09509729,1.0,1.8803679468320829,6.362550899545182E8,0.0,0.0,0.0,-43.687783000000024,30690.45785696951,598854.7455551903,773.8570575727731,1.4241577566182816E7,-0.5789399584839985,-0.533960162681955,8.0,93.0,1089.5599,-1865.8173
Finger3,205.84428960211486,668.4095496469694,227.33121211171124,855.1521605083676,426.73988486289636,-8.318111764274306,0.21396904965722463,426.73988486289636,-8.318111764274306,0.21396904965722463,426.73988486289636,-8.318111764274306,0.21396904965722463,426.73988486289636,-8.318111764274306,0.21396904965722463,7.0,8.516168006820495,1.0677175295790668E9,0.0,0.8214266916274782,3.6058551876301855E8,0.0,0.0,0.0,0.0,0.0,0.0,-207.94883132786882,26602.044007481603,910722.803328453,954.3179781018762,1.442985178138172E7,-1.3249022783455102,-0.3052941031117414,4.0,61.0,1119.873,-1876.4923
Finger3,61.54651552968611,519.5336638834825,282.8064784317183,633.0247153339809,307.1699266281462,114.8468474037121,-12.03573193216367,307.1699266281462,114.8468474037121,-12.03573193216367,307.1699266281462,114.8468474037121,-12.03573193216367,307.1699266281462,114.8468474037121,-12.03573193216367,0.0,0.8222695197039234,1.2228044494623018E7,0.0,0.0,3781747.6318465606,0.0,0.0,0.0,0.0,0.0,0.0,-819.4920330769231,5128.037390820738,165455.44224294936,406.762144554959,2514550.215585202,-1.4677398882693493,-0.5223075251813013,0.0,13.0,-384.30176,-1505.8868
Finger3,185.38710224878838,339.1005153741238,61.83627561312973,510.49998874843794,339.2177721899893,-27.401149169754035,-0.6957454586449217,339.2177721899893,-27.401149169754035,-0.6957454586449217,0.0,0.0,0.0,339.2177721899893,-27.401149169754035,-0.6957454586449217,0.0,0.0,0.0,1.0,1.7836331785602049,4.3434704535316163E8,0.0,0.0,0.0,2.0,3.6365822925635367,1.1511322965750878E9,-671.7149515555556,9909.631930498723,150456.58875761312,387.88734029046776,4148556.018487624,-0.9578296018290628,0.6531649399278399,1.0,27.0,39.47754,-1131.6559
Finger3,303.88045341293287,559.8261611143747,123.74598987964059,659.112220785515,279.9986636012677,25.38450482190217,-0.6573629205840952,279.9986636012677,25.38450482190217,-0.6573629205840952,279.9986636012677,25.38450482190217,-0.6573629205840952,279.9986636012677,25.38450482190217,-0.6573629205840952,2.0,3.9434368767932466,7.259388139593208E8,0.0,0.3339124275922506,3.9252047481379464E7,0.0,0.0,0.0,0.0,0.0,0.0,61.27075494285707,15907.72202968288,972925.9949318222,986.3701105223242,8576003.623661699,-1.2650821517022985,-0.09009756972444548,1.0,35.0,1628.2471,-1446.7712
Finger3,123.71107398654014,914.9948544503975,174.78829156449245,1013.7733294034583,434.1061238293905,14.242463290059959,-0.3315034779792079,434.1061238293905,14.242463290059959,-0.3315034779792079,434.1061238293905,14.242463290059959,-0.3315034779792079,434.1061238293905,14.242463290059959,-0.3315034779792079,2.0,3.5788207978143327,7.909493765097364E8,0.0,0.0,0.0,0.0,0.0,0.0,7.0,9.145765059637641,2.57545144642148E9,23.758204264705736,18596.223044662478,1518281.5570316082,1232.1856828544992,1.256926497365211E7,-1.0602777841349866,-0.47133610008475,2.0,34.0,1543.5516,-2355.0566
Finger3,201.74263351070218,450.5208503513397,171.46167439399244,494.73854442980485,446.6979536465742,-12.202155939098645,0.11947862542681698,446.6979536465742,-12.202155939098645,0.11947862542681698,446.6979536465742,-12.202155939098645,0.11947862542681698,446.6979536465742,-12.202155939098645,0.11947862542681698,11.0,16.919982245534364,2.810800250740702E9,0.0,0.7964035621194508,4.664910061823168E7,1.0,0.8419183252371599,6.4102763198213406E7,0.0,0.0,0.0,-17.56836958878504,26705.24793450072,345102.3904300894,587.4541602798378,9297538.343684498,-0.7000074755985697,-0.09012529601164239,6.0,107.0,1052.4994,-1137.6984
Finger3,88.44218947377392,494.8241104020276,90.06993659628665,535.8889480367613,193.0108873480658,-0.6982847938860317,0.013597168715275054,193.0108873480658,-0.6982847938860317,0.013597168715275054,193.0108873480658,-0.6982847938860317,0.013597168715275054,193.0108873480658,-0.6982847938860317,0.013597168715275054,13.0,18.635904285907817,3.663823242678851E9,0.0,0.0,0.0,1.0,0.8377591490044002,7.213015327383614E7,0.0,0.0,0.0,-42.55872291428569,27779.21359321051,246448.36680824787,496.43566230504416,7789246.81238535,-0.6922282303305116,-0.5783899075924888,7.0,126.0,656.8176,-1211.4166
Finger3,75.75024818915286,287.26174203848234,78.65379184195243,323.54061914788707,290.22646970129546,-60.39586702863198,3.3988045036196013,290.22646970129546,-60.39586702863198,3.3988045036196013,290.22646970129546,-60.39586702863198,3.3988045036196013,290.22646970129546,-60.39586702863198,3.3988045036196013,23.0,34.33088595010477,1.2456258160135311E10,0.0,0.0,1111149.4732655622,0.0,0.0,0.0,0.0,0.0,0.0,-0.7815171999999991,31083.177041402436,246310.65551756677,496.2969428855741,1.0484959265311312E7,0.8003741194561722,0.12211103811759565,12.0,171.0,1361.1694,-1233.6731
Finger3,71.45356356588609,372.6635850647517,134.88413269323377,404.6713839735715,308.17478420150655,-4.295061135788117,0.03352153562281235,308.17478420150655,-4.295061135788117,0.03352153562281235,308.17478420150655,-4.295061135788117,0.03352153562281235,308.17478420150655,-4.295061135788117,0.03352153562281235,11.0,16.364851899955326,4.423574468865489E9,0.0,0.0,1639686.1659153358,1.0,0.8417231644874125,3.9754667950532466E7,0.0,0.0,0.0,-128.29127187704924,25936.696241403763,221199.4614600255,470.31846812561537,7190481.507204189,-0.8593452025655708,0.331093706929129,5.0,122.0,841.214,-948.0652
Finger3,247.61167931502897,758.2781788217587,80.62800974521494,789.7094285978859,763.591357302264,-102.93833062742215,-0.2748532548421281,763.591357302264,-102.93833062742215,-0.2748532548421281,763.591357302264,-102.93833062742215,-0.2748532548421281,763.591357302264,-102.93833062742215,-0.2748532548421281,11.0,17.873308408199104,6.323081018543998E9,0.0,0.3546287455724073,2.8081737987058945E7,1.0,0.8358647067303434,1.7383761573946384E8,0.0,0.0,0.0,-56.152866380952425,40139.486823595886,735941.5641664418,857.8703655951998,1.9472751307110276E7,-0.801461921294214,-0.5475984864765292,5.0,105.0,1190.1672,-1843.6615
Finger3,37.59742389953823,349.12594636777084,234.17934440176322,376.22148326541014,376.7499500578084,0.0,0.0,376.7499500578084,0.0,0.0,376.7499500578084,0.0,0.0,376.7499500578084,0.0,0.0,10.0,16.323671840313676,4.561371811638144E9,0.0,NaN,0.0,0.0,0.0,0.0,0.0,0.0,0.0,-264.9060489511493,18053.127372239403,214189.36294028375,462.8059668373818,6042078.419705168,0.1840415868593741,-0.7737719404967691,5.0,87.0,496.7926,-1536.5021
Finger3,30.230146815994885,234.3383979615086,37.54803297387143,292.7586708105902,-63.47279989100207,12.755600260607451,-0.08512190839884282,-63.47279989100207,12.755600260607451,-0.08512190839884282,-63.47279989100207,12.755600260607451,-0.08512190839884282,-63.47279989100207,12.755600260607451,-0.08512190839884282,11.0,18.03990371880102,3.6194085320578933E9,0.0,0.35851235477334853,3624984.839692142,0.0,0.0,0.0,0.0,0.0,0.0,-67.42289245037041,37768.72939301923,508890.9625328202,713.3659387248737,1.720315148419216E7,0.13394509329061632,-0.22117292642209993,8.0,135.0,1376.5778,-1894.9219
Finger3,297.2708252579017,630.2710239504703,247.91162139799874,739.9883408086948,770.9427143341863,5.299405656955059,-19.156378897023387,770.9427143341863,5.299405656955059,-19.156378897023387,770.9427143341863,5.299405656955059,-19.156378897023387,770.9427143341863,5.299405656955059,-19.156378897023387,7.0,8.99902466519174,1.134079576688414E9,0.0,0.35388366705386193,2.642918755537184E7,1.0,0.8394974025040918,1.2429630608477955E8,0.0,0.0,0.0,-342.5573723818182,19739.21401673513,524578.0908709551,724.277633833156,8899206.425872572,-1.0688687713297664,-0.05597319847756716,3.0,55.0,852.594,-1632.3761
Finger3,153.22202844875716,624.7257986400002,153.10845328271566,653.3613194790092,54.54411430407404,-0.16076148381006672,1.0011075750275371E-4,54.54411430407404,-0.16076148381006672,1.0011075750275371E-4,54.54411430407404,-0.16076148381006672,1.0011075750275371E-4,54.54411430407404,-0.16076148381006672,1.0011075750275371E-4,0.0,0.0,0.0,0.0,0.35989311615563424,1.8259056304060582E7,1.0,0.8397527517834463,1.1546587056178679E8,0.0,0.0,0.0,0.0,0.0,0.0,0.0,0.0,0.0,0.0,0.0,0.0,0.0,0.0
Finger3,149.6186318650612,416.63557139844005,238.61663032619117,531.1451488589319,347.5181857599291,-6.011843153117127,0.1053667841059629,347.5181857599291,-6.011843153117127,0.1053667841059629,347.5181857599291,-6.011843153117127,0.1053667841059629,347.5181857599291,-6.011843153117127,0.1053667841059629,7.0,9.589831997996916,3.594552588602318E8,1.0,0.908252803280955,1.2065692177652778E8,0.0,0.0,0.0,0.0,0.0,0.0,-206.05786102631583,24392.494314846354,493834.35185133805,702.7334856482491,1.0024480060853958E7,-0.5912626643593994,0.6069332558573376,3.0,76.0,1300.7446,-1200.7416
Finger3,191.66015232793248,662.614356142773,64.44072394209415,723.7740381985572,464.0598064499959,-6.985262078147315,0.06058132580949782,464.0598064499959,-6.985262078147315,0.06058132580949782,464.0598064499959,-6.985262078147315,0.06058132580949782,464.0598064499959,-6.985262078147315,0.06058132580949782,15.0,19.720800572098828,1.6043425684220586E9,0.0,0.0,0.0,1.0,0.8372941843939853,1.299169329080823E8,11.0,17.516788349134952,2.8363445909605045E9,-39.42417268119664,38822.15433957452,632168.1192012439,795.090006981124,1.8523765511401966E7,-0.5920524581172169,-0.3228853273024555,10.0,117.0,1461.4746,-1668.3289
Finger3,225.43417957074698,936.4652896924069,79.65364886272269,1025.5866175431677,444.642405404903,-4.057416768741973,0.08478384726344235,444.642405404903,-4.057416768741973,0.08478384726344235,444.642405404903,-4.057416768741973,0.08478384726344235,444.642405404903,-4.057416768741973,0.08478384726344235,0.0,0.0,0.0,0.0,0.3338051436381742,9.157799199598375E7,1.0,0.8391104972789307,2.6570277586159655E8,0.0,0.0,0.0,-46.81578925555557,44028.23439338525,1304200.195736758,1142.0158474105156,2.9271477404461183E7,-0.8207677089233179,-0.4033776046789357,4.0,90.0,1885.7574,-2383.0535
Finger3,177.79182350845852,551.1531378300657,164.39855616848982,622.0475639174646,557.6513039630886,-92.87147957603293,3.1698178796199272,557.6513039630886,-92.87147957603293,3.1698178796199272,557.6513039630886,-92.87147957603293,3.1698178796199272,557.6513039630886,-92.87147957603293,3.1698178796199272,14.0,18.601147770750295,3.7241779100650268E9,0.0,0.33397041686791745,3.502180363679856E7,0.0,0.0,0.0,0.0,0.0,0.0,-78.64221214666664,32254.35254895301,904510.8911874343,951.0577748945825,1.692825379356708E7,-1.1242848541060202,-0.21266553974300684,4.0,75.0,1318.6707,-2034.4025
Finger3,64.09093091867955,262.3444284015219,90.2571959336444,366.8282783567183,-25.83351876865663,16.574316307306873,-0.181902888995769,-25.83351876865663,16.574316307306873,-0.181902888995769,-25.83351876865663,16.574316307306873,-0.181902888995769,-25.83351876865663,16.574316307306873,-0.181902888995769,5.0,8.647269644805506,4.909322672940774E8,1.0,0.9029359594629993,5.544649949293496E7,0.0,0.0,0.0,0.0,0.0,0.0,123.51292907162163,18780.882501195887,360014.65025296743,600.012208419935,6855679.843000399,0.9753330802819677,-1.213499004920986,4.0,74.0,920.2698,-1574.8718
Finger3,185.01498493123125,618.7298722597826,180.36634788332555,702.3026980784891,147.0565052417037,142.73501756663904,-8.978040682566814,147.0565052417037,142.73501756663904,-8.978040682566814,147.0565052417037,142.73501756663904,-8.978040682566814,147.0565052417037,142.73501756663904,-8.978040682566814,1.0,1.1068760688198962,1.0801992872755237E7,0.0,0.3339524910239601,4.435018529610133E7,1.0,0.833115485695437,1.1843250022368954E8,0.0,0.0,0.0,-889.2398560588235,8480.774118522531,345919.5973028317,588.1492984802683,4868397.523173158,-1.3750093634949634,0.4651914469729994,1.0,17.0,150.8606,-1538.1134
Finger3,228.1400582235552,792.5143806102705,197.13935467044158,928.6140008341383,279.13814817633556,6.62017173674667,0.10181186391227115,279.13814817633556,6.62017173674667,0.10181186391227115,279.13814817633556,6.62017173674667,0.10181186391227115,279.13814817633556,6.62017173674667,0.10181186391227115,7.0,10.045585661377917,1.6832236451099687E9,1.0,1.646989603893932,7.52683913469083E8,0.0,0.0,0.0,0.0,0.0,0.0,-320.7185404137932,32521.253424467912,1503060.282765556,1225.9935900181354,2.3082888039463364E7,-1.0333398843750483,0.21964621084366204,3.0,58.0,1948.2971,-2217.9932
Finger3,188.25602082240118,672.1770913305052,117.84349776632095,724.6886410698221,308.07833899840944,-4.850617416463649,0.09284000257472513,308.07833899840944,-4.850617416463649,0.09284000257472513,308.07833899840944,-4.850617416463649,0.09284000257472513,308.07833899840944,-4.850617416463649,0.09284000257472513,13.0,17.48296491910099,5.305807809332862E9,0.0,0.7995189489134394,1.0071187725920792E8,0.0,0.0,0.0,0.0,0.0,0.0,-50.64299370652177,31744.845983063246,649317.6145244321,805.8024661940618,1.492258739742422E7,-0.7287947407260562,-0.15559264482065832,3.0,92.0,1440.3259,-1670.1416
