Klasse,minimumSteigungWert,maximumSteigungWert,minimumSenkungWert,maximumSenkungWert,steigungA,steigungB,steigungC,senkungA,senkungB,senkungC,mittelA,mittelB,mittelC,gesamtA,gesamtB,gesamtC,fftAnfangMedian,fftAnfangMittel,fftAnfangPSD,fftMitteMedian,fftMitteMittel,fftMittePSD,fftEndeMedian,fftEndeMittel,fftEndePSD,fftGesamtMedian,fftGesamtMittel,fftGesamtPSD,mittelwert,signalstärke,varianz,standardabweichung,energie,kurtosis,schiefe,zeroCrossings,laenge,maximalwert,minimalwert
Finger1,63.448971045027044,204.3095342887825,80.37960501628315,257.84070861306236,77.83421927857421,42.473411108260734,-30.629037634158408,77.83421927857421,42.473411108260734,-30.629037634158408,77.83421927857421,42.473411108260734,-30.629037634158408,178.96062382923992,0.18943642046257025,-7.583914490731924E-4,0.0,0.0,0.0,0.0,0.0,0.0,0.0,0.0,0.0,0.0,0.0,0.0,2.164584473544299,29637.693929806985,161507.39103519716,401.8798216322849,6351828.514407377,-1.5029345800546776,0.16292878897842716,8.0,158.0,637.5824,-553.5919
Finger1,79.27078810948797,236.95053910329278,87.1554011380885,309.6987911709942,237.64180421815183,-31.660698564646964,-0.0364433462425211,0.0,0.0,0.0,0.0,0.0,0.0,0.0,0.0,0.0,0.0,0.0,0.0,1.0,0.910395692061195,4.1993356644381694E7,0.0,0.0,0.0,0.0,0.0,0.0,0.0,0.0,0.0,0.0,0.0,0.0,0.0,0.0,0.0,0.0,0.0
Finger1,114.65175076472657,270.22770442114114,138.96492683624243,317.586154349264,0.0,0.0,0.0,203.0661887378344,0.024769216943525407,9.18609225527417E-5,270.24552675646646,-27.8584393758008,-0.6614426165837415,270.24552675646646,-27.8584393758008,-0.6614426165837415,0.0,0.0,0.0,0.0,0.7953796229871123,1.929799271888301E7,1.0,0.8381650808036653,2.315955308892117E7,0.0,0.0,0.0,16.539302746710522,98282.8592115992,210887.67443369245,459.22508036222547,2.4051472246344317E7,-1.5305078259681237,0.05568787865366717,23.0,456.0,757.82776,-683.8074
Finger1,6.772192245294444,358.16439708215455,187.9578912470027,397.80157467525004,0.0,0.0,0.0,0.0,0.0,0.0,0.0,0.0,0.0,0.0,0.0,0.0,0.0,0.0,0.0,0.0,0.7945060141465536,3.0117500645734854E7,1.0,0.8364940044196699,4.0292879055782884E7,0.0,0.0,0.0,0.0,0.0,0.0,0.0,0.0,0.0,0.0,0.0,0.0,0.0,0.0
Finger1,27.47674507019827,217.31084755448668,102.62719865617352,255.38629135626334,112.28638011247449,49.61530393998203,-4.159762989827843,220.63779137018508,-50.58620377864736,2.2690724296419518,220.63779137018508,-50.58620377864736,2.2690724296419518,112.28638011247449,49.61530393998203,-4.159762989827843,1.0,0.9924064827930429,408742.3468553128,0.0,0.3338222939094012,5941443.572353853,1.0,0.8415521129145519,1.4011303553140936E7,0.0,0.0,0.0,334.9682590666667,2671.743181832844,43761.0670180146,209.19146019380094,571389.5571450713,-1.7861870344565047,-0.26144802527339694,0.0,15.0,565.979,42.90161
Finger1,94.4389697367274,250.84259413457937,118.72686559641568,281.74167433812465,115.13302102085663,40.5828442888494,-1.385125598478112,115.13302102085663,40.5828442888494,-1.385125598478112,115.13302102085663,40.5828442888494,-1.385125598478112,115.13302102085663,40.5828442888494,-1.385125598478112,1.0,0.8855676297488932,1716988.33859292,0.0,0.7974462338764597,1.5081496617979407E7,0.0,0.0,0.0,0.0,0.0,0.0,400.148461764706,3754.5679909898577,52657.23722149167,229.4716479687451,914740.4042709706,-0.6427067374037461,-0.7439209860878461,1.0,17.0,651.6815,-109.16748
Finger1,72.66418434126246,272.97375861083833,65.50200976102423,316.63985062768234,127.07541573189633,5.490781208483895,-0.10897700847499614,127.07541573189633,5.490781208483895,-0.10897700847499614,127.07541573189633,5.490781208483895,-0.10897700847499614,127.07541573189633,5.490781208483895,-0.10897700847499614,3.0,3.953342799783678,5.4915781947921604E7,0.0,0.0,0.0,0.0,0.0,0.0,0.0,0.0,0.0,-92.38952579999997,7127.4382190876195,149630.53416104082,386.8210621993596,1551590.5216882415,-1.3362594457792003,-0.031390601595566975,2.0,40.0,530.12695,-738.89465
Finger1,48.90482860612852,283.20284498621265,157.9063740262353,366.4988364420179,146.03323434860886,37.937271731616875,-1.6826645990769258,146.03323434860886,37.937271731616875,-1.6826645990769258,146.03323434860886,37.937271731616875,-1.6826645990769258,146.03323434860886,37.937271731616875,-1.6826645990769258,1.0,1.7278122241241236,8.343305871583214E7,1.0,0.8357372567564165,3.95892926182878E7,0.0,0.0,0.0,0.0,0.0,0.0,-542.6469748000001,6786.955844183663,34685.806266626285,186.24125822874555,2023922.4203198696,-0.6071880334670188,0.6798805640666273,0.0,25.0,-163.14697,-792.0685
Finger1,344.3975798710261,598.9014821581826,134.94808927181,666.5451937408772,356.5023249248052,-0.7691158372825839,0.13893489158047423,356.5023249248052,-0.7691158372825839,0.13893489158047423,356.5023249248052,-0.7691158372825839,0.13893489158047423,356.5023249248052,-0.7691158372825839,0.13893489158047423,2.0,3.771911928265823,7.362405167251703E8,1.0,0.8315137297110284,1.3293009615609027E8,1.0,0.8335696254201644,1.1232246068630816E8,0.0,0.0,0.0,-34.21783472727268,18770.058533805714,863471.4348654333,929.231636819062,9691942.457885044,-1.3418734043815526,-0.2567957849807792,2.0,44.0,1387.0514,-1506.0883
Finger1,52.60600096713918,213.92355485352084,82.14158760118873,246.69454517067425,265.0774973693475,11.34981548662563,-6.3611312784297525,217.12985950266824,-44.38478529280013,2.1774657729646236,93.97182445960198,50.91109997158662,-4.044009841457999,217.12985950266824,-44.38478529280013,2.1774657729646236,2.0,2.1137712877523906,103858.88180980082,0.0,0.3347477534722342,5313537.944642439,1.0,0.8361203248540188,1.3738143521575104E7,0.0,0.0,0.0,296.86035266333334,2650.5728757704915,59929.73196007069,244.8054982227129,549163.8089995278,-1.6424641744329682,-0.3611512968592809,1.0,15.0,552.9877,-57.10144
Finger1,66.01926958590131,250.34217755340194,75.82658576502686,280.69429890889614,98.2280666891636,-5.1506232855318785,0.20829459065896394,98.2280666891636,-5.1506232855318785,0.20829459065896394,98.2280666891636,-5.1506232855318785,0.20829459065896394,98.2280666891636,-5.1506232855318785,0.20829459065896394,8.0,10.301877477026908,2.6600749605112635E7,0.0,0.3349319310857908,6061519.942937523,1.0,0.8314279539063243,2.0337144516645234E7,0.0,0.0,0.0,94.23459077209303,4902.011143790643,74758.27929864237,273.4196029889634,890962.4949319932,-0.48339024005999276,0.7281970479464417,7.0,43.0,699.0143,-284.50012
Finger1,227.12463759564446,429.95182241982195,100.48617126708297,511.9675756875489,55.34725336867905,85.11706775834818,-4.359534671287975,55.34725336867905,85.11706775834818,-4.359534671287975,55.34725336867905,85.11706775834818,-4.359534671287975,55.34725336867905,85.11706775834818,-4.359534671287975,1.0,1.6581005755545115,1.4552515399442092E7,0.0,0.3552207988949773,1.2832894787643623E7,0.0,0.0,0.0,0.0,0.0,0.0,597.8557421052631,6412.357779489494,131759.9946524673,362.98759572810104,2475154.460351702,-1.4623977885994266,-0.046796824381239326,0.0,19.0,1128.9368,55.08728
Finger1,86.69915019476315,310.88066548341754,114.44500425308804,326.93386987960156,90.01415754839377,71.496392612504,-5.232437880995704,90.01415754839377,71.496392612504,-5.232437880995704,90.01415754839377,71.496392612504,-5.232437880995704,90.01415754839377,71.496392612504,-5.232437880995704,1.0,0.8485288014730864,2841733.568163818,0.0,0.35931555770620127,4224499.59587882,0.0,0.0,0.0,0.0,0.0,0.0,-442.6989793333333,3546.40913922835,57899.21658777963,240.62256042977273,956555.5414887504,-1.5626984925912375,0.07536195530411602,0.0,15.0,-106.8512,-780.18494
Finger1,73.34943403536577,255.21575604508305,136.37490024854057,302.4060489128948,153.01761713281303,51.46799534381671,-4.711315036585312,153.01761713281303,51.46799534381671,-4.711315036585312,153.01761713281303,51.46799534381671,-4.711315036585312,153.01761713281303,51.46799534381671,-4.711315036585312,0.0,0.8548610355818921,296622.9049078497,0.0,0.353921021681145,4526033.612317861,1.0,0.829909219568635,1.9585913374418553E7,0.0,0.0,0.0,-372.7994627142857,2967.267202713526,72695.44693391991,269.62093192836477,721352.1129221971,-1.1831192298696303,0.5716854101377383,1.0,14.0,145.72449,-653.09143
Finger1,54.57957799578012,240.14628975813207,63.64756850717923,274.2652991793356,245.74851714924893,-69.21433444895825,6.013362779407544,333.4412979467627,-4.364859792890087,-0.027253459477174502,333.4412979467627,-4.364859792890087,-0.027253459477174502,333.4412979467627,-4.364859792890087,-0.027253459477174502,4.0,7.356576173214202,1.2705792381185195E9,0.0,0.0,720747.51399225,1.0,0.8455612231356577,1.5772896788653906E7,0.0,0.0,0.0,-415.73160971111116,9883.213111132982,118821.13249641174,344.70441322444907,3256683.085159221,-1.378109752271276,-0.3983223886433303,1.0,45.0,31.018066,-1014.8346
Finger1,208.44975503383955,373.0025825123493,86.66014607976771,369.66446401264415,370.7613850221994,-28.522853861263002,-0.688949441407658,370.7613850221994,-28.522853861263002,-0.688949441407658,370.7613850221994,-28.522853861263002,-0.688949441407658,370.7613850221994,-28.522853861263002,-0.688949441407658,1.0,1.1528129837038752,870761.1059708477,1.0,1.8805463110956828,2.0414142685369968E8,0.0,0.0,0.0,2.0,3.7174212911668185,6.548948636157454E8,599.5629354260868,7775.43167389409,105709.83542021153,325.1304898347916,2820506.6446937458,-0.8068932347466085,-0.9688304975352828,2.0,23.0,906.4728,-2.7191162
Finger1,47.3710758123364,194.1173942884843,197.24164796450788,231.9851271441549,0.0,0.0,0.0,436.5895173605468,-29.364985381732936,0.647970410868214,436.5895173605468,-29.364985381732936,0.647970410868214,0.0,0.0,0.0,3.0,3.960798990178049,2.6777997921215785E8,0.0,0.0,0.0,0.0,0.0,0.0,0.0,0.0,0.0,0.0,0.0,0.0,0.0,0.0,0.0,0.0,0.0,0.0,0.0,0.0
Finger1,219.03668744163744,653.8149706955269,71.55857385275029,702.998561318147,658.5312051971557,-113.79307576763495,5.050366882219635,658.5312051971557,-113.79307576763495,5.050366882219635,658.5312051971557,-113.79307576763495,5.050366882219635,-145.41651304812876,105.47673695568847,-3.920328154743615,3.0,3.234646197447562,5680800.485822292,0.0,0.3571633870326015,2.021492477790254E7,0.0,0.0,0.0,0.0,0.0,0.0,-561.2686151363637,8185.756427894874,466545.9380008634,683.0416810128526,4366608.456267975,-1.5738547095335116,-0.2977598044367355,3.0,22.0,268.18542,-1671.6522
Finger1,87.3027199514545,298.5686248788871,87.07307991362984,317.3590184284667,54.724625469033356,-0.1490919885591795,1.0076356803771465E-4,54.724625469033356,-0.1490919885591795,1.0076356803771465E-4,54.724625469033356,-0.1490919885591795,1.0076356803771465E-4,54.724625469033356,-0.1490919885591795,1.0076356803771465E-4,0.0,0.0,0.0,0.0,0.7884619214993592,1.8628039839448906E7,0.0,0.0,0.0,0.0,0.0,0.0,0.0,0.0,0.0,0.0,0.0,0.0,0.0,0.0,0.0,0.0,0.0
Finger1,151.3646151283453,381.5453605518687,64.26338396206565,442.317350690985,52.19064223457207,-0.11892514397339382,6.706500518557684E-5,52.19064223457207,-0.11892514397339382,6.706500518557684E-5,380.3874295702076,-9.577428925482081,-1.4683319947188664,0.0,0.0,0.0,0.0,0.0,0.0,1.0,0.8312437671946017,5.827947711461608E7,1.0,1.7786422587545183,1.5745534740186426E8,0.0,0.0,0.0,0.0,0.0,0.0,0.0,0.0,0.0,0.0,0.0,0.0,0.0,0.0
Finger1,71.56678619589518,281.9588525388139,165.63732090713887,302.1391468657101,161.27875086639347,52.39760878098343,-4.703867584767899,161.27875086639347,52.39760878098343,-4.703867584767899,161.27875086639347,52.39760878098343,-4.703867584767899,161.27875086639347,52.39760878098343,-4.703867584767899,0.0,0.0,0.0,0.0,0.35471601172738965,4212894.57026442,0.0,0.0,0.0,0.0,0.0,0.0,452.87672000000003,3173.6173608868658,31963.971451075107,178.78470698321797,803194.4377893339,-1.668754904052069,-0.17899669363795434,0.0,14.0,683.50525,206.95496
Finger1,77.03222989794713,273.8451063406604,66.52761813234615,326.77752212612705,118.74668266090794,-2.887651522334494,0.05135544344959553,118.74668266090794,-2.887651522334494,0.05135544344959553,118.74668266090794,-2.887651522334494,0.05135544344959553,118.74668266090794,-2.887651522334494,0.05135544344959553,12.0,17.347604207790333,3.8892244645341367E8,0.0,0.3571871986283297,4335661.365563856,1.0,0.8530127203205827,2.451986641138117E7,0.0,0.0,0.0,3.476163270114966,10607.218218457916,88625.68670654837,297.70066628502593,1925898.3604061692,0.23043376064410337,-0.2558793902306634,6.0,87.0,643.6249,-773.1354
Finger1,117.03638640126768,299.0934345953685,93.30188500331899,257.51441709523607,160.28421911908094,10.610728309303852,-0.24478633206430622,160.28421911908094,10.610728309303852,-0.24478633206430622,160.28421911908094,10.610728309303852,-0.24478633206430622,0.0,0.0,0.0,3.0,4.15596579557164,1.3800646642105752E8,1.0,1.7612220082059797,1.4391512166824204E8,1.0,1.8631467266813522,1.9255775932435825E7,0.0,0.0,0.0,-105.06134063636362,10374.786389591703,242058.8537415776,491.99477003478154,2777786.180522583,-1.4750767813822372,0.16874515605984866,3.0,44.0,670.6146,-759.4391
Finger1,110.49148927151197,345.96755372105963,61.5133883002717,356.71870138225114,303.7188810780294,-4.416151707967231,0.048084049584492305,303.7188810780294,-4.416151707967231,0.048084049584492305,348.0806967906774,-56.51424377831768,1.770815824313587,303.7188810780294,-4.416151707967231,0.048084049584492305,2.0,3.6555655224822403,2.858881815016835E8,0.0,0.0,979820.8398809999,1.0,0.8521533372178708,3.66369587968304E7,0.0,0.0,0.0,100.64646052805557,8868.637325131722,335182.6358949997,578.9495970246458,3067498.53305371,-0.870442102912174,0.26968863583537567,2.0,36.0,1163.0768,-871.02356
Finger1,297.33696232885654,831.7677739410893,141.46913500645385,922.3550278634387,476.860024601483,5.732204169742204,-0.04886576811822252,476.860024601483,5.732204169742204,-0.04886576811822252,476.860024601483,5.732204169742204,-0.04886576811822252,476.860024601483,5.732204169742204,-0.04886576811822252,2.0,3.4571479538875827,7.438121671092689E8,0.0,0.35629920303566565,4.215786018913664E7,1.0,0.8343661905758406,2.0926962583768618E8,0.0,0.0,0.0,9.673128307692377,21915.72621016481,1532846.7295195702,1238.0818751276388,1.4856748468886819E7,-1.3272144915102855,-0.20160272542761518,1.0,39.0,1823.7213,-1999.2554
Finger1,102.02409597104999,294.2692285003718,104.24627051819053,343.3761206529943,129.24093061022336,4.595421810860842,-0.05622341575877421,129.24093061022336,4.595421810860842,-0.05622341575877421,129.24093061022336,4.595421810860842,-0.05622341575877421,129.24093061022336,4.595421810860842,-0.05622341575877421,7.0,8.505541740046915,5.030952542823385E8,0.0,0.0,0.0,1.0,0.8418837198221337,2.7925370265792336E7,0.0,0.0,0.0,-59.35599900322579,12343.822696270643,197048.43225736183,443.90137672388653,3094661.398317324,-0.7808592520683408,-0.15303576176400568,3.0,62.0,780.38635,-954.5105
Finger1,108.50886033687095,304.9677372752246,133.4157223975226,328.8094554594003,347.6281902046867,8.04641494896805,-4.377971773917352,347.6281902046867,8.04641494896805,-4.377971773917352,347.6281902046867,8.04641494896805,-4.377971773917352,347.6281902046867,8.04641494896805,-4.377971773917352,3.0,4.173501551429803,1.2809140650200742E8,0.0,0.33384014283746666,9637642.876669984,0.0,0.0,0.0,0.0,0.0,0.0,-23.551287085714318,7956.359664018825,243622.8257974058,493.5816303281614,2106638.572811266,-1.4736573016427572,-0.00287448035407672,2.0,35.0,696.7987,-734.86633
Finger1,184.50390505229382,368.42999759625314,119.91983575755688,373.60166507376476,393.5013248676587,28.69126508927411,-6.708448396785798,393.5013248676587,28.69126508927411,-6.708448396785798,393.5013248676587,28.69126508927411,-6.708448396785798,393.5013248676587,28.69126508927411,-6.708448396785798,1.0,1.8232371538228287,3.5972712961687595E7,0.0,0.0,0.0,0.0,0.0,0.0,0.0,0.0,0.0,-487.4397520967742,8116.437786884097,57026.41566041699,238.8020428313313,2388174.137794052,-1.2785452331005118,-0.16021622682365427,0.0,31.0,-113.497925,-900.6317
Finger1,75.04831173095347,255.7536084973547,113.8809514302879,299.54029883706175,261.7155428896795,-73.34160800411667,6.9680741938278885,261.7155428896795,-73.34160800411667,6.9680741938278885,261.7155428896795,-73.34160800411667,6.9680741938278885,261.7155428896795,-73.34160800411667,6.9680741938278885,3.0,4.022440222537219,3.990306214972792E7,0.0,0.0,895393.6802059535,0.0,0.0,0.0,0.0,0.0,0.0,25.564098156249973,4590.254612713286,105524.30635048325,324.84504975523834,820343.2522914541,-0.8769906303381956,0.7931515511740421,2.0,32.0,700.6256,-320.15076
Finger1,109.25870546886836,360.38806041974294,45.39958363785652,386.1249223780103,166.4180345646007,4.685869641617444,-0.06700743459640535,166.4180345646007,4.685869641617444,-0.06700743459640535,166.4180345646007,4.685869641617444,-0.06700743459640535,166.4180345646007,4.685869641617444,-0.06700743459640535,2.0,3.754708303924455,7.196301977022073E7,0.0,0.0,1499668.1825683597,0.0,0.0,0.0,0.0,0.0,0.0,-36.60736214705885,7447.449897749632,232047.20602384463,481.712783745506,1969133.9288198375,-1.2409880557970654,-0.2086735842086195,1.0,34.0,604.04663,-901.03455
Finger1,69.57764215493418,226.50927255021844,83.10420275806194,270.63584466853786,112.06011063541337,-3.7962698605466016,0.05920515235088131,112.06011063541337,-3.7962698605466016,0.05920515235088131,112.06011063541337,-3.7962698605466016,0.05920515235088131,112.06011063541337,-3.7962698605466016,0.05920515235088131,15.0,20.77703274052249,1.2378841486073525E8,0.0,0.3553238741649363,2498022.9305672776,1.0,0.8398644354582201,1.7042750210768837E7,0.0,0.0,0.0,50.20230345696202,6702.6208608779925,41806.59956991752,204.4666221414085,876419.1417652153,1.0697134632088092,0.8929666345904026,7.0,79.0,681.8939,-298.80066
Finger1,17.05919047246995,205.8592691599487,102.65298685948916,252.32264612738774,212.30983993977569,-74.26746984781613,6.846717622229576,209.11307354389612,-10.554519534841077,0.1632846710053828,212.30983993977569,-74.26746984781613,6.846717622229576,209.11307354389612,-10.554519534841077,0.1632846710053828,7.0,8.69189072343023,1.6024521756718686E8,0.0,0.3550318518380686,2888848.0558665874,0.0,0.0,0.0,0.0,0.0,0.0,4.379225043124954,6040.692288944281,63422.300752192285,251.8378461474611,988108.643920572,0.40514606566139433,-0.12352127423522835,8.0,64.0,557.2174,-606.3629
Finger1,105.64089729333524,412.5415004879887,87.57837957885468,454.4532359435698,214.1604660603275,-11.926686896980812,0.2728200727850969,214.1604660603275,-11.926686896980812,0.2728200727850969,214.1604660603275,-11.926686896980812,0.2728200727850969,214.1604660603275,-11.926686896980812,0.2728200727850969,6.0,8.664000289417702,1.384428805007639E8,0.0,0.35540057230445093,9062006.99503442,1.0,0.8402499973993169,5.029303123978957E7,0.0,0.0,0.0,-90.25236029464288,9171.176027464315,165899.88392665816,407.30809459997005,2430330.5711264913,-0.04537099292867408,-0.7256458719701333,6.0,56.0,538.88855,-1059.0454
Finger1,21.163339581844845,217.75397721654886,101.0360013252333,232.2980052471827,252.63308737493333,-2.62124060695794,0.010066007482108785,252.63308737493333,-2.62124060695794,0.010066007482108785,252.63308737493333,-2.62124060695794,0.010066007482108785,252.63308737493333,-2.62124060695794,0.010066007482108785,23.0,35.11761812495574,4.758409492006733E9,0.0,0.0,309818.2098851856,1.0,0.8488732971995504,1.3614833514857177E7,0.0,0.0,0.0,7.739616032602033,24495.279984510664,90807.3809056248,301.3426304153211,4423762.13818193,0.4231166149431429,0.5556775168679784,17.0,196.0,940.10925,-556.8146
Finger1,52.97475678005731,209.25703488331231,66.59131083721189,223.08259567646292,67.15252902714155,53.05545092499301,-4.347834825714415,67.15252902714155,53.05545092499301,-4.347834825714415,67.15252902714155,53.05545092499301,-4.347834825714415,67.15252902714155,53.05545092499301,-4.347834825714415,2.0,1.8105108683916546,48708.944028115606,0.0,0.35571778829799616,1838493.808203939,1.0,0.8435348031860777,1.3399466853739414E7,0.0,0.0,0.0,253.12957635714287,2207.304718965761,54630.22968533885,233.73110551515998,409228.27556805336,-1.5954717241289174,-0.2688923765285777,1.0,14.0,544.12537,-90.43579
Finger1,128.62696099857945,335.5377698247371,93.5672648629895,361.5934202624998,138.43005317864936,25.885111146365887,-1.0127736451001148,138.43005317864936,25.885111146365887,-1.0127736451001148,138.43005317864936,25.885111146365887,-1.0127736451001148,138.43005317864936,25.885111146365887,-1.0127736451001148,1.0,1.7468384747855876,1.4760568640267234E7,0.0,0.35765176409497984,5832020.564318579,1.0,1.8927934825795831,1.703222198905122E8,0.0,0.0,0.0,-433.8213246428572,6642.0921431690485,54540.7033422764,233.53951130863572,1749069.2548722776,-0.18988945331211893,0.37764255201680214,1.0,28.0,106.448364,-827.92053
Finger1,138.98244213124008,430.2954206444083,153.8188824837592,480.56395709550736,208.13015433735927,8.698087371552333,-0.16935643687117974,208.13015433735927,8.698087371552333,-0.16935643687117974,208.13015433735927,8.698087371552333,-0.16935643687117974,208.13015433735927,8.698087371552333,-0.16935643687117974,4.0,4.871448146926666,1.185228047213897E8,0.0,0.0,0.0,0.0,0.0,0.0,2.0,3.506733157641058,6.72790240339397E7,-145.85205559999994,8578.728321394457,370066.908941582,608.3312493548084,2888480.491909909,-1.3795734999027212,-0.025715731255386842,2.0,30.0,721.17004,-1102.4506
Finger1,100.16473371858127,353.94707161998406,110.59882301329735,374.69740450931977,0.0,0.0,0.0,0.0,0.0,0.0,0.0,0.0,0.0,0.0,0.0,0.0,0.0,0.0,0.0,0.0,0.0,0.0,0.0,0.0,0.0,0.0,0.0,0.0,0.0,0.0,0.0,0.0,0.0,0.0,0.0,0.0,0.0,0.0,0.0
Finger1,79.26364803431353,263.2318060130394,87.80517962634325,292.98370040542034,190.35690460252795,-5.927072086376768,0.0885909264800977,190.35690460252795,-5.927072086376768,0.0885909264800977,190.35690460252795,-5.927072086376768,0.0885909264800977,190.35690460252795,-5.927072086376768,0.0885909264800977,13.0,17.278705996789316,5.710105997382768E8,0.0,0.35744340860357354,3854498.342574247,1.0,0.8450785838462567,2.1529860840677794E7,0.0,0.0,0.0,66.63954939473682,10283.337709091928,87704.9186001097,296.15016224900114,1745366.47399824,-1.049521901374332,0.2656892662389387,4.0,76.0,669.0033,-342.70935
Finger1,82.19583411454278,264.86300996480264,105.73031739327982,287.2019462540903,114.3510464351582,60.342416581604994,-5.632266010245395,114.3510464351582,60.342416581604994,-5.632266010245395,114.3510464351582,60.342416581604994,-5.632266010245395,114.3510464351582,60.342416581604994,-5.632266010245395,0.0,0.9807738596583021,157114.61010969098,0.0,0.0,779702.8101811524,1.0,0.836501727086355,2.0238176891761173E7,0.0,0.0,0.0,332.40614784615383,2532.2991915062557,70127.06989486584,264.81516175412963,574799.2459616176,-1.5286927132806185,-0.21498048037655706,1.0,13.0,664.77356,-87.91809
Finger1,131.13198809660523,281.874797600289,89.65677431591091,310.97598408987835,87.51235783352627,62.82309612931056,-4.4018093367822,87.51235783352627,62.82309612931056,-4.4018093367822,87.51235783352627,62.82309612931056,-4.4018093367822,87.51235783352627,62.82309612931056,-4.4018093367822,1.0,0.9171886668351797,725968.5246060963,0.0,0.357076434093845,4337006.9221685,1.0,0.8432947341294469,2.539599342481414E7,0.0,0.0,0.0,-383.0194086,3441.2739851217098,73166.24662863053,270.4925999517002,873352.5730335234,-1.4686882148341984,0.3927905036891495,1.0,15.0,53.778076,-718.1488
Finger1,10.611107206816966,163.2696104546999,62.15229255254918,183.0704862749484,146.88848436054388,-3.4870670027449933,0.0736511371237345,146.88848436054388,-3.4870670027449933,0.0736511371237345,146.88848436054388,-3.4870670027449933,0.0736511371237345,146.88848436054388,-3.4870670027449933,0.0736511371237345,2.0,3.6627970350373054,5.3788220730124235E7,0.0,0.7814636760184139,6056647.621888159,0.0,0.0,0.0,0.0,0.0,0.0,-5.575965547794122,8334.847148352841,27547.869682493387,165.97550928523577,930195.7479105918,0.8911036019809679,-0.16621529790497608,15.0,136.0,361.0382,-483.70056
Finger1,46.37400965657829,194.10080944258306,87.66954927746461,179.0780035508749,26.874027608757274,-0.039741878506912465,2.2879463642220274E-5,26.874027608757274,-0.039741878506912465,2.2879463642220274E-5,26.874027608757274,-0.039741878506912465,2.2879463642220274E-5,0.0,0.0,0.0,0.0,0.0,0.0,2.0,4.045048287552184,1.4159108193725782E7,1.0,0.838310319300068,1.1551635077442681E7,0.0,0.0,0.0,0.0,0.0,0.0,0.0,0.0,0.0,0.0,0.0,0.0,0.0,0.0
Finger1,142.5591386652581,326.9420069343492,176.4242288207117,382.8854894584126,198.2993904824466,59.50044972393596,-5.174918001298295,198.2993904824466,59.50044972393596,-5.174918001298295,198.2993904824466,59.50044972393596,-5.174918001298295,198.2993904824466,59.50044972393596,-5.174918001298295,1.0,1.2604345850200311,1221890.6555704672,0.0,0.3510876599438313,7627333.08304893,0.0,0.0,0.0,0.0,0.0,0.0,398.9188028571429,3952.4745505521105,196253.25348263665,443.00480074445767,1215125.9279506023,-1.4827453869583456,-0.5873770486283091,1.0,14.0,820.77026,-297.59216
Finger1,83.01756911557426,299.17259873033976,129.2938409488556,379.6086224713434,300.21529591893614,-42.0508755847884,-0.3041677060941481,300.21529591893614,-42.0508755847884,-0.3041677060941481,300.21529591893614,-42.0508755847884,-0.3041677060941481,181.3139722599999,4.957126765606631,-0.055976936896962926,0.0,0.0,0.0,2.0,3.37046435535262,4.545852117513517E8,1.0,0.8368230648664293,2.8823105852769833E7,0.0,0.0,0.0,-223.69291849275362,18143.050322347066,268892.5012139777,518.5484559942086,5444677.341410063,-1.1808418430658636,0.4587781961745781,3.0,69.0,729.4281,-972.73865
Finger1,198.2468705764433,388.57735689353285,96.04616703686025,462.87498465984135,213.7502606594876,1.0465631138285971,0.042298406082343476,213.7502606594876,1.0465631138285971,0.042298406082343476,213.7502606594876,1.0465631138285971,0.042298406082343476,213.7502606594876,1.0465631138285971,0.042298406082343476,6.0,8.48793073758802,6.269510264329554E8,0.0,0.3537197902307854,1.0722228829512771E7,0.0,0.0,0.0,0.0,0.0,0.0,-11.824992767441861,11218.512421899548,326727.5848245731,571.6008964518627,3560251.1944489307,-1.0968464499941382,-0.11433785480536764,2.0,43.0,993.5852,-1007.2815
Finger1,41.713848155009714,116.85348993544768,56.87404301104498,156.1871865974911,55.537023514862625,-0.1209247326657692,7.648183649969838E-5,55.537023514862625,-0.1209247326657692,7.648183649969838E-5,55.537023514862625,-0.1209247326657692,7.648183649969838E-5,55.537023514862625,-0.1209247326657692,7.648183649969838E-5,7.0,9.311891818435823,4.16567576250839E7,0.0,0.3363789902101177,1870144.6740165006,0.0,0.0,0.0,0.0,0.0,0.0,0.0,0.0,0.0,0.0,0.0,0.0,0.0,0.0,0.0,0.0,0.0
Finger1,63.76423231899128,226.42655757083773,133.22153819492596,253.67110038846874,460.5016366589998,-13.17333695756571,0.09752064974283675,460.5016366589998,-13.17333695756571,0.09752064974283675,460.5016366589998,-13.17333695756571,0.09752064974283675,460.5016366589998,-13.17333695756571,0.09752064974283675,10.0,15.6951634852271,3.438157317299658E9,0.0,0.0,0.0,0.0,0.0,0.0,0.0,0.0,0.0,-119.88263485486726,14959.109047546624,140355.67061288582,374.64072204298054,4337641.679754115,1.091858435520126,-1.1406963004515325,5.0,113.0,596.2921,-1217.6605
Finger1,74.00661312064948,323.1559986915985,121.7029005565888,389.4925448688159,0.0,0.0,0.0,0.0,0.0,0.0,406.3324258522521,4.82268415507815,-4.406918140583457,259.50333664163327,-9.030929641246786,0.1350539548595142,13.0,18.032028421682895,5.256949821749282E8,0.0,0.7945163878287774,2.8861483960642967E7,0.0,0.0,0.0,0.0,0.0,0.0,-27.87453855357143,15501.572981387782,182033.27807199926,426.6535808732879,3799208.9983703536,-0.7857862392543455,0.03475622876217099,5.0,84.0,817.4469,-867.9016
Finger1,82.30687518408085,288.51593468826087,143.79413292765258,304.77307039522145,330.9103605517571,4.113562564303038,-0.5950728295839056,330.9103605517571,4.113562564303038,-0.5950728295839056,330.9103605517571,4.113562564303038,-0.5950728295839056,330.9103605517571,4.113562564303038,-0.5950728295839056,3.0,4.071107461587905,2.6616609718871617E8,0.0,0.33376525602622853,8175282.035175634,1.0,0.8393099741621138,2.4642707332989592E7,0.0,0.0,0.0,41.00704195937501,8626.089018683977,358371.8059749749,598.6416340140191,2808520.6297558085,-1.3273369397857595,0.4069995181316992,2.0,32.0,1057.3334,-739.4989
Finger1,111.70765242841881,226.05442502249417,77.89595122317273,253.89104241436934,147.3522928663856,5.854944647099103,-0.3311885348163237,147.3522928663856,5.854944647099103,-0.3311885348163237,147.3522928663856,5.854944647099103,-0.3311885348163237,147.3522928663856,5.854944647099103,-0.3311885348163237,4.0,5.035323458930982,1.0195486178464936E7,0.0,0.35430112891366633,2723564.2224100577,3.0,4.93548138093146,5.386321369639883E7,0.0,0.0,0.0,31.614414880392147,5701.819767650468,72756.02477090033,269.733247433275,964870.4488603944,-0.3286680301788487,0.20388523252505955,4.0,51.0,600.62256,-455.0995
Finger1,216.2837959769198,498.2111180011351,87.81532020942358,537.6497094525691,551.2810598762974,-7.314411163330078,-7.314414978027344,551.2810598762974,-7.314411163330078,-7.314414978027344,551.2810598762974,-7.314411163330078,-7.314414978027344,551.2810598762974,-7.314411163330078,-7.314414978027344,1.0,0.88793161217565,7198308.613108385,0.0,0.0,3451274.4469123604,0.0,0.0,0.0,1.0,1.7825329962584173,2.5204964676429528E8,-605.3243667312499,5647.555035273626,188198.63784467877,433.81866931320366,2338133.9147143187,-1.7038896568508626,0.04267544683594744,1.0,16.0,4.1290283,-1199.5331
Finger1,130.16581673081498,278.51608926169934,98.58442399598482,329.56796085938186,277.91020890191885,-32.03397166059494,0.5542788840471076,277.91020890191885,-32.03397166059494,0.5542788840471076,277.91020890191885,-32.03397166059494,0.5542788840471076,277.91020890191885,-32.03397166059494,0.5542788840471076,11.0,16.23038045273663,1.0839081211231759E9,0.0,0.0,0.0,0.0,0.0,0.0,11.0,16.22669839792853,1.7237289446371047E9,-16.262636650762687,16762.870918576336,126748.45297148266,356.0174896988667,3778107.0740699805,0.33007399794652015,-0.25344765373425204,9.0,118.0,808.9874,-928.4271
Finger1,91.34141504319116,290.4330793051535,79.54686367779038,309.8465325090483,172.4527591840199,4.061975152225898,-0.11541993954840901,172.4527591840199,4.061975152225898,-0.11541993954840901,172.4527591840199,4.061975152225898,-0.11541993954840901,172.4527591840199,4.061975152225898,-0.11541993954840901,0.0,0.0,0.0,0.0,0.0,1145379.3673670404,0.0,0.0,0.0,7.0,9.594339631202189,1.9161761984273452E8,-37.295532357142875,7990.958113537267,166878.17562434985,408.5072528417945,1755466.511045945,-1.2977479731682828,0.11321261251499035,2.0,42.0,670.3125,-714.3219
Finger1,252.8991293366581,486.5795136638956,59.199598545831314,533.1228782005356,489.59605019711967,-81.63131612246934,6.8000452858472045,489.59605019711967,-81.63131612246934,6.8000452858472045,489.59605019711967,-81.63131612246934,6.8000452858472045,489.59605019711967,-81.63131612246934,6.8000452858472045,0.0,0.0,0.0,0.0,0.35623943654173484,1.2726614819850339E7,1.0,0.8455858421580731,7.212099052479145E7,0.0,0.0,0.0,-102.16267822222223,10252.155875169776,394148.64519291295,627.8125876349669,3745726.397141759,-1.1809987555743975,-0.32297422389700725,2.0,36.0,766.38794,-1230.954
Finger1,42.020191926308975,278.1601783444072,130.55499278006397,290.02096245746606,314.8691001654536,15.017315645856797,-6.265297875726446,314.8691001654536,15.017315645856797,-6.265297875726446,314.8691001654536,15.017315645856797,-6.265297875726446,314.8691001654536,15.017315645856797,-6.265297875726446,1.0,1.124044439905869,143107.81370743824,0.0,0.3345211301045555,6917621.9174614055,0.0,0.0,0.0,0.0,0.0,0.0,-417.15175323809524,4772.800950312267,64291.239417480385,253.55717189123322,1219155.6615686128,0.2857836813803383,1.1061005899023437,1.0,21.0,229.81567,-713.61694
Finger1,59.535006049580566,221.16077830781083,70.10693747333721,232.69329303153947,62.63918360792829,-0.12326412814701737,6.647284215356957E-5,0.0,0.0,0.0,62.63918360792829,-0.12326412814701737,6.647284215356957E-5,62.63918360792829,-0.12326412814701737,6.647284215356957E-5,0.0,0.0,0.0,0.0,0.7857414117653776,1.0001205890364492E7,1.0,0.8467611983560608,1.5070827947824052E7,0.0,0.0,0.0,0.0,0.0,0.0,0.0,0.0,0.0,0.0,0.0,0.0,0.0,0.0
Finger1,61.65312313797648,231.1503837361198,98.17893528626334,233.12125042950876,91.12967954644682,50.88695984949209,-3.661415378428849,91.12967954644682,50.88695984949209,-3.661415378428849,91.12967954644682,50.88695984949209,-3.661415378428849,91.12967954644682,50.88695984949209,-3.661415378428849,1.0,1.0930852796606325,72646.00596573506,0.0,0.7908009371998779,1.0193299093267286E7,0.0,0.0,0.0,0.0,0.0,0.0,332.6574293125,3024.3549863417174,55190.324593732395,234.92621095512607,656895.2104129618,-1.1503879959228536,-0.5539895301224393,1.0,16.0,604.34875,-117.42554
Finger1,54.75447222011319,344.19366990635734,62.325850144453106,395.5722943835163,348.9981203085531,-74.6497456441075,3.0116758855626244,348.9981203085531,-74.6497456441075,3.0116758855626244,348.9981203085531,-74.6497456441075,3.0116758855626244,348.9981203085531,-74.6497456441075,3.0116758855626244,8.0,11.618967389403647,2.014614936554954E7,0.0,0.0,1796195.4381550658,0.0,0.0,0.0,0.0,0.0,0.0,-83.11372563529412,6457.901835543671,100649.82262109501,317.2535620305862,1356763.8944921857,0.26466975201183596,-1.1358380482984851,3.0,51.0,282.18384,-886.12976
Finger1,71.20178345469577,230.91834874461654,69.58782998886635,264.97126820029837,26.539930735969165,15.263721577101194,-0.36155333724259897,26.539930735969165,15.263721577101194,-0.36155333724259897,26.539930735969165,15.263721577101194,-0.36155333724259897,26.539930735969165,15.263721577101194,-0.36155333724259897,4.0,5.770670093421636,1.292996953096332E7,0.0,0.36086130289947843,2880457.7566641876,0.0,0.0,0.0,0.0,0.0,0.0,114.64347794250001,4654.144125339762,90426.14605652505,300.70940466923383,826399.7039519772,-0.9893022722111402,-0.06703721860341433,4.0,32.0,649.8688,-408.37097
Finger1,70.73914301089333,283.74337857686294,72.61494400032093,372.3737051063783,34.395361793807524,65.29742404480828,-3.2370102103468987,34.395361793807524,65.29742404480828,-3.2370102103468987,34.395361793807524,65.29742404480828,-3.2370102103468987,34.395361793807524,65.29742404480828,-3.2370102103468987,1.0,1.7252621529451426,6917992.027766673,1.0,0.834518610261506,3.925254612823191E7,1.0,0.8414433014512025,2.4294299752089612E7,0.0,0.0,0.0,-455.2577408952381,5144.542343728019,79085.63203925741,281.2216777548584,1503471.5927624775,-1.3911449382927283,0.30359224800476226,1.0,21.0,2.8198242,-837.3871
Finger1,35.413925065863246,186.65800409129304,93.87843576346742,189.25714540068162,192.39626110191122,-60.50971415024196,5.545245296940429,192.39626110191122,-60.50971415024196,5.545245296940429,192.39626110191122,-60.50971415024196,5.545245296940429,192.39626110191122,-60.50971415024196,5.545245296940429,8.0,10.043973890269996,5.0362676939361736E7,0.0,0.7846354076159874,6462918.778532182,1.0,0.842563803908996,9732854.115413878,0.0,0.0,0.0,-101.99706962000002,5084.080670470428,39045.99592992969,197.60059698778667,666713.9987837533,-0.882516904075497,-0.4348240672234512,5.0,55.0,191.94946,-528.2135
Finger1,29.819214330447448,179.41301925919743,90.47718165897567,202.04123892876066,180.62034228308,-45.287817295406,2.9579220216550937,180.62034228308,-45.287817295406,2.9579220216550937,180.62034228308,-45.287817295406,2.9579220216550937,180.62034228308,-45.287817295406,2.9579220216550937,0.0,0.0,0.0,0.0,0.33539204566130165,3195652.6034341953,0.0,0.0,0.0,0.0,0.0,0.0,-29.95382787387387,9145.690840146632,39226.59412450447,198.05704765169168,1099429.6983929947,-0.04661768845287906,0.03734594576580034,11.0,111.0,463.9618,-515.7257
Finger1,210.5879989598848,476.5405811533784,133.9958348118827,517.865995003401,479.3967884322542,-68.4156336261824,2.811712690690115,479.3967884322542,-68.4156336261824,2.811712690690115,479.3967884322542,-68.4156336261824,2.811712690690115,479.3967884322542,-68.4156336261824,2.811712690690115,1.0,1.175262370380202,3554130.965954211,0.0,0.0,3127353.966848717,1.0,0.8378730129399928,6.892588407092865E7,0.0,0.0,0.0,-580.8166536666666,5398.4935305520285,224602.29680439507,473.922247636039,2186067.4145549187,-1.3894978930604291,0.3956981740313308,1.0,15.0,231.02417,-1163.4796
Finger1,234.5825520678354,381.3881713441873,92.1352554166184,427.8283753691137,122.5668807355396,74.58402617027957,-4.1787777623515225,122.5668807355396,74.58402617027957,-4.1787777623515225,122.5668807355396,74.58402617027957,-4.1787777623515225,122.5668807355396,74.58402617027957,-4.1787777623515225,1.0,1.036163017259388,1261383.5022988985,1.0,0.8511618030498178,5.5144780227851026E7,0.0,0.0,0.0,0.0,0.0,0.0,589.7908511666666,6158.4415527207475,131435.859249597,362.54083804393264,2307117.1363216843,-1.4590412557781283,-0.5608733137452568,1.0,18.0,951.9928,-40.283203
Finger1,50.98058379545019,293.17425043449833,85.35743624650844,339.36239050781177,76.067139682071,79.8135992193279,-6.598095044142923,0.0,0.0,0.0,76.067139682071,79.8135992193279,-6.598095044142923,76.067139682071,79.8135992193279,-6.598095044142923,1.0,0.969853993536492,320644.060971532,0.0,0.0,1084768.4930928398,0.0,0.0,0.0,1.0,1.7305572231940332,6.309515823326769E7,352.68663635714285,2924.13764411545,97748.45160393945,312.6474877620792,755992.3406431848,-1.505510889556436,-0.04483096191410496,1.0,14.0,812.3108,-99.3988
Finger1,98.96336443082093,343.37758490061105,150.10055369475185,373.0378323276162,347.68642195204006,-54.93770541889205,0.8662701089308484,347.68642195204006,-54.93770541889205,0.8662701089308484,347.68642195204006,-54.93770541889205,0.8662701089308484,347.68642195204006,-54.93770541889205,0.8662701089308484,3.0,2.559050258849995,111354.97559156596,0.0,0.0,1601737.1332540514,1.0,0.837597099185719,3.5386370942555785E7,1.0,1.701939261013232,7.702393274626756E7,424.03493961538464,3423.9676939087904,137531.34363572497,370.8521856963027,1018773.8379954603,-1.4855651338489742,-0.45759205134553127,1.0,13.0,821.77734,-171.0022
Finger1,35.01479201613651,209.56455378454055,144.61985787493973,218.5101275793505,50.33925265951365,-0.07987548407201722,3.832911785817036E-5,50.33925265951365,-0.07987548407201722,3.832911785817036E-5,50.33925265951365,-0.07987548407201722,3.832911785817036E-5,50.33925265951365,-0.07987548407201722,3.832911785817036E-5,185.0,269.9150410629762,9.864211053483885E9,0.0,0.35773221282548534,1637753.894123143,0.0,0.0,0.0,0.0,0.0,0.0,0.0,0.0,0.0,0.0,0.0,0.0,0.0,0.0,0.0,0.0,0.0
Finger1,246.22902537102215,452.0270990836684,88.91452020841562,487.4462783309938,231.895065086022,4.218735151837905,-0.008106686836184096,231.895065086022,4.218735151837905,-0.008106686836184096,231.895065086022,4.218735151837905,-0.008106686836184096,231.895065086022,4.218735151837905,-0.008106686836184096,4.0,5.030880705425554,7.655556578425331E7,0.0,0.0,0.0,1.0,0.8536346303461447,6.162935523705483E7,0.0,0.0,0.0,-126.69067182857145,10515.534686320143,377213.9692512239,614.1774737412826,3537211.4733277657,-1.2967206450238926,0.16373025274822608,1.0,35.0,816.3391,-1147.5677
Finger1,326.1788501977606,580.5341157893811,112.28506466257616,653.2110153071981,248.96365048090502,-3.0365310669822634,0.0871915903685978,248.96365048090502,-3.0365310669822634,0.0871915903685978,248.96365048090502,-3.0365310669822634,0.0871915903685978,248.96365048090502,-3.0365310669822634,0.0871915903685978,10.0,17.23481636969798,1.714007335973198E9,0.0,0.0,4365125.600516891,1.0,0.8472003810201842,1.0678428578857385E8,0.0,0.0,0.0,30.231201753333348,22263.081020233963,450680.41044431046,671.3273496918702,8683531.065496791,-0.4052577409434379,-0.05068107800139889,4.0,75.0,1439.0167,-1512.2314
Finger1,133.38995759140582,304.70792681025546,89.93367983181928,305.4813158214949,51.88412298575756,-0.13092454983312862,9.58533142188736E-5,0.0,0.0,0.0,51.88412298575756,-0.13092454983312862,9.58533142188736E-5,0.0,0.0,0.0,0.0,0.0,0.0,0.0,0.0,0.0,0.0,0.0,0.0,0.0,0.0,0.0,0.0,0.0,0.0,0.0,0.0,0.0,0.0,0.0,0.0,0.0,0.0
Finger1,209.09544475322195,457.3970607594544,94.80453298404089,517.0950075514224,450.5511107175164,-24.085518613830345,-1.4021440170026267,450.5511107175164,-24.085518613830345,-1.4021440170026267,450.5511107175164,-24.085518613830345,-1.4021440170026267,450.5511107175164,-24.085518613830345,-1.4021440170026267,0.0,0.0,0.0,1.0,0.8423337794706124,8.118540396358378E7,1.0,0.8299952254510917,1.0421684827746342E8,0.0,0.0,0.0,0.0,0.0,0.0,0.0,0.0,0.0,0.0,0.0,0.0,0.0,0.0
Finger1,82.07220270642242,317.25012186271493,124.71810456098544,352.76453898112453,365.7524936031959,-6.600257873535156,-6.600257873535156,365.7524936031959,-6.600257873535156,-6.600257873535156,365.7524936031959,-6.600257873535156,-6.600257873535156,365.7524936031959,-6.600257873535156,-6.600257873535156,1.0,0.8654600836118113,3728714.3766982555,0.0,0.0,1336864.6679562498,1.0,0.8371616891649833,2.952929171210872E7,0.0,0.0,0.0,-448.4096007142857,3313.5025901399767,60963.243772734255,246.9073586848603,909211.377758901,-1.7034295848893763,-0.11300530202571578,0.0,14.0,-152.87476,-795.694
Finger1,361.4755003485049,773.3010985451026,193.15337293024652,817.8476477013986,473.71134228861047,0.5286189082215742,0.11357545823329573,473.71134228861047,0.5286189082215742,0.11357545823329573,473.71134228861047,0.5286189082215742,0.11357545823329573,473.71134228861047,0.5286189082215742,0.11357545823329573,2.0,3.907597210546772,8.059482067791513E8,0.0,0.3543543091393757,2.9746213829838738E7,0.0,0.0,0.0,0.0,0.0,0.0,18.216298338235294,17825.727766267035,1275804.1845654594,1129.5150218414358,1.0952812716242298E7,-1.3146108243985184,-0.2889084859782782,2.0,34.0,1520.5902,-1855.7465
Finger1,52.10330118238914,254.23396665280373,89.73109316380611,318.5432547366054,120.32306939963314,65.4472991920781,-6.450741758640596,120.32306939963314,65.4472991920781,-6.450741758640596,120.32306939963314,65.4472991920781,-6.450741758640596,120.32306939963314,65.4472991920781,-6.450741758640596,1.0,0.8547470662995036,646804.734571354,0.0,0.0,887217.0540840001,1.0,0.8518774331441291,1.9051825380958296E7,0.0,0.0,0.0,348.99197923076923,2476.1070972641633,69371.87435455863,263.3854102917598,600062.9240824962,-1.6327198871801787,0.4159950297449119,0.0,13.0,759.7412,85.80322
Finger1,89.08837650776199,256.8207358473049,202.4285301211573,304.6196482207908,394.82304981917446,-22.542766049721763,0.6573379972779385,353.1051752934061,-10.839574364398231,0.17949030912638264,394.82304981917446,-22.542766049721763,0.6573379972779385,353.1051752934061,-10.839574364398231,0.17949030912638264,3.0,4.040342563408714,1.6046440580091548E8,0.0,0.36014717120670664,4175788.408637408,1.0,0.8486230921738119,2.1075595289161097E7,0.0,0.0,0.0,11.688423968749955,7792.507788038953,292692.5550956723,541.0106792806149,2254209.074255161,-1.3449341272386148,0.44914255993486824,2.0,32.0,891.3666,-697.9065
Finger1,84.72477697546528,258.0429072249924,85.04475799654696,270.5256934657655,289.65691010326645,10.249677384371353,-6.685036501497507,289.65691010326645,10.249677384371353,-6.685036501497507,289.65691010326645,10.249677384371353,-6.685036501497507,289.65691010326645,10.249677384371353,-6.685036501497507,1.0,1.1388337847459837,128750.89710436804,0.0,0.35229416951887826,3346001.454504855,1.0,0.823423005022177,1.986074295220672E7,0.0,0.0,0.0,344.16961365714286,2802.5872790514845,62245.413966686276,249.49030836224134,637272.4003529019,-1.8137599278411314,-0.2950484742567947,2.0,14.0,608.9813,-1.2084961
Finger1,123.38146181091076,226.8175821175492,90.42708804566844,271.46633064193657,93.38874311946256,0.17768362367301904,0.0028199545253374536,93.38874311946256,0.17768362367301904,0.0028199545253374536,93.38874311946256,0.17768362367301904,0.0028199545253374536,0.0,0.0,0.0,12.0,17.015973498474434,3.915601363892021E8,0.0,0.33411031518121936,6508017.331184874,0.0,0.0,0.0,0.0,0.0,0.0,-57.398611098360654,14390.850320311543,67096.50804463262,259.02993657998803,2176765.200644648,-0.27522837391272725,0.6548161385535402,5.0,122.0,609.08203,-454.79736
Finger1,188.04929886318578,550.2877571830605,125.59582468247964,602.5152607541463,69.97658227607917,7.839012626243857,-0.04923569099058844,69.97658227607917,7.839012626243857,-0.04923569099058844,69.97658227607917,7.839012626243857,-0.04923569099058844,69.97658227607917,7.839012626243857,-0.04923569099058844,11.0,16.599773816196684,4.695290016534048E9,0.0,0.3558356968514014,1.583056597516494E7,0.0,0.0,0.0,0.0,0.0,0.0,-83.5065693432203,35746.47950044315,480516.8135756211,693.1932007569183,1.4368158265362581E7,-0.7894225898119034,0.09668949934864632,4.0,118.0,1235.1837,-1463.0859
Finger1,55.20231493319528,230.0138592904367,123.86917011821652,238.63491952953925,286.18917956010796,-16.898035069774863,0.3709276354307258,286.18917956010796,-16.898035069774863,0.3709276354307258,286.18917956010796,-16.898035069774863,0.3709276354307258,286.18917956010796,-16.898035069774863,0.3709276354307258,5.0,7.7889492330981245,4.1543481426815647E8,0.0,0.0,0.0,0.0,0.0,0.0,5.0,7.614243615536951,7.3118112919009E7,-80.65616989130432,7056.561806477065,116721.04626785454,341.644619843273,1381132.341735733,-0.62610966502019,0.4548120385196482,2.0,46.0,597.1985,-627.4109
Finger1,91.51913349680065,324.0012707677734,84.98893956106275,350.81002540689315,79.60620956506204,83.04650838644636,-6.556393461551387,79.60620956506204,83.04650838644636,-6.556393461551387,79.60620956506204,83.04650838644636,-6.556393461551387,0.0,0.0,0.0,1.0,0.974326464199641,1207098.300183324,0.0,0.0,0.0,1.0,0.8349251200727861,3.135371056639734E7,1.0,1.7301321028078176,8.721329017043766E7,414.22642249999996,3302.032952862968,86459.5024912913,294.0399675066152,910216.0114079296,-1.7834558911964196,-0.11124065631949755,0.0,14.0,786.026,44.110107
Finger1,213.67572864008127,407.3264432711393,74.86270141400409,443.2101851768472,465.49763325189383,14.829105783201157,-7.98445881592329,465.49763325189383,14.829105783201157,-7.98445881592329,465.49763325189383,14.829105783201157,-7.98445881592329,465.49763325189383,14.829105783201157,-7.98445881592329,2.0,3.5974449202247296,9.618859183077666E7,0.0,0.3336497279201911,1.7863839150356557E7,1.0,0.8397758311286657,5.105583070864448E7,0.0,0.0,0.0,-76.16440908947362,10851.429476938567,378705.75488988135,615.3907335099233,3722178.0094125154,-1.278643236506827,0.11131034239504209,3.0,38.0,927.2186,-968.2068
Finger1,167.26520703096918,358.7905707951565,61.85172716139792,400.6881560375435,0.0,0.0,0.0,155.6522001815788,-0.8656030577897695,0.10841035129850862,155.6522001815788,-0.8656030577897695,0.10841035129850862,0.0,0.0,0.0,0.0,0.0,0.0,0.0,0.35641691130598757,7445307.405977746,1.0,0.84674119007262,4.032334131463642E7,0.0,0.0,0.0,-15.103857618604684,8685.08388615265,209456.28999470064,457.6639487601144,2297672.872118262,-0.8679277439484863,-0.47826228059647513,1.0,43.0,716.7389,-897.50977
Finger1,52.807922129614575,196.73039429206187,93.00104511496849,251.61332967846351,111.91091905390545,44.94856768593439,-4.030522584812012,111.91091905390545,44.94856768593439,-4.030522584812012,111.91091905390545,44.94856768593439,-4.030522584812012,111.91091905390545,44.94856768593439,-4.030522584812012,1.0,1.0561903559215002,419213.31591823197,0.0,0.35158495018557895,3000800.8777380744,1.0,0.8389926124640558,1.2580894353128517E7,0.0,0.0,0.0,246.9648089285714,2356.0745303327785,76472.54303722871,276.5366938350654,462012.7673059522,-1.643539383318698,-0.3314155066924896,1.0,14.0,569.30237,-151.46484
Finger1,78.74670791114767,565.6705911815908,159.94538895614056,571.7260594285787,610.140351591316,-0.7748908996582031,-0.7748908996582031,50.38055026943857,129.7921634083168,-8.530325665419213,50.38055026943857,129.7921634083168,-8.530325665419213,50.38055026943857,129.7921634083168,-8.530325665419213,0.0,0.8166708464338234,1.6664291047436751E7,0.0,0.0,0.0,1.0,0.8365302080734617,8.820027213023083E7,0.0,0.0,0.0,-697.3085437499999,5803.544588693043,173272.41255503346,416.26002997529497,2580293.928621975,-1.4156906712210469,-0.3473572556415389,0.0,16.0,-184.19495,-1395.5109
Finger1,64.54165698329021,369.64130909616364,76.82461061950161,436.24051696582694,168.15174089530478,-1.6663263841599019,0.10877339493064042,168.15174089530478,-1.6663263841599019,0.10877339493064042,168.15174089530478,-1.6663263841599019,0.10877339493064042,168.15174089530478,-1.6663263841599019,0.10877339493064042,7.0,8.857563372634857,3.405812423225794E8,0.0,0.3574582103881726,9053941.086232632,0.0,0.0,0.0,0.0,0.0,0.0,59.71537281111107,9111.839830764806,213937.43371632256,462.533710897187,2402122.667843849,-0.9482266089372109,0.5286126191082995,2.0,45.0,965.5884,-575.44556
Finger1,32.13765945617729,210.63753121962344,89.96702903162473,239.402416506403,217.29845169724106,-55.97281769225327,3.483954526491857,217.29845169724106,-55.97281769225327,3.483954526491857,217.29845169724106,-55.97281769225327,3.483954526491857,217.29845169724106,-55.97281769225327,3.483954526491857,1.0,1.0881679548783627,62846.78629721144,0.0,0.3534611799295727,2509044.924141885,1.0,0.8256111437928609,1.263945237327904E7,0.0,0.0,0.0,-282.0903227142857,2263.4770131087207,54614.50438572095,233.69746337031765,448851.2236849083,-1.431104351465169,0.3514870979217695,1.0,14.0,136.76147,-543.219
Finger1,255.28916362713727,443.831758295319,115.80161545492473,514.4871471590217,351.2430796520284,-6.821349156186557,0.22931252763805965,351.2430796520284,-6.821349156186557,0.22931252763805965,351.2430796520284,-6.821349156186557,0.22931252763805965,351.2430796520284,-6.821349156186557,0.22931252763805965,2.0,3.695902063875661,3.051593195179793E8,0.0,0.35411979542531036,1.263491224414799E7,1.0,0.8404859375566917,6.296237554230685E7,0.0,0.0,0.0,20.862887324324316,12169.214235519668,493229.6172223256,702.3030807438663,4654787.876973816,-1.304953240787962,-0.15710662884610854,2.0,37.0,1066.095,-1151.3947
Finger1,84.35983154481795,276.58053969847094,66.81108804547371,313.77510035477184,132.18863771261272,36.724743791425226,-2.0934976226641027,132.18863771261272,36.724743791425226,-2.0934976226641027,132.18863771261272,36.724743791425226,-2.0934976226641027,132.18863771261272,36.724743791425226,-2.0934976226641027,2.0,1.4730582775293402,28999.208433446765,0.0,0.3614551787277918,3042786.9418895002,0.0,0.0,0.0,0.0,0.0,0.0,-393.19930955999996,4450.534947964593,65167.7250011749,255.27969954772138,1110785.8004283383,-0.9642907279992285,0.3415274529628548,1.0,20.0,44.41223,-828.12195
Finger1,148.99030395255474,384.9401982049913,60.74295487966506,441.8740387292417,0.0,0.0,0.0,323.13331027449317,-7.429012949084509,0.07461965877904042,387.1064837973868,-62.11211549835184,2.824350837550867,323.13331027449317,-7.429012949084509,0.07461965877904042,13.0,17.750995763129705,4.757128950224667E8,0.0,0.0,0.0,0.0,0.0,0.0,10.0,16.874566750604174,1.1266090548106525E9,-53.93778607070706,19722.07358880183,208190.87493504936,456.2793825443457,5250098.733192252,-0.8466908236407398,-0.13836669056474588,8.0,99.0,787.0331,-1014.43176
Finger1,22.356860277500527,224.3715424727359,105.22632429594674,254.8586823880265,105.74063077247865,53.599814874008416,-4.841706270238255,0.0,0.0,0.0,105.74063077247865,53.599814874008416,-4.841706270238255,0.0,0.0,0.0,0.0,0.7902768253580088,596662.0838986124,0.0,0.35448267769954844,2689683.529902698,1.0,0.8412085857793432,1.4814558964166205E7,0.0,0.0,0.0,-326.1356885,2392.5945500817443,41874.65322739115,204.63297199471828,501384.4735466669,-1.5581662189248682,0.1172568300455422,1.0,14.0,13.595581,-606.96716
Finger1,105.52814395276611,309.7566446568309,104.20813946319069,351.7291422408904,130.93277764518575,74.25844933607141,-6.7078633665157525,0.0,0.0,0.0,130.93277764518575,74.25844933607141,-6.7078633665157525,130.93277764518575,74.25844933607141,-6.7078633665157525,2.0,1.6690857914093167,74935.42855739684,0.0,0.0,0.0,1.0,0.8413484838641849,3.0432148182885032E7,1.0,1.6453687183487502,6.278254260063029E7,392.60629599230765,3134.173970675067,107472.6171142416,327.83016504623487,862954.7121776163,-1.6975145832827638,-0.11772120408626195,1.0,13.0,829.22974,-58.914185
Finger1,156.65176374333356,339.23866370141,128.76857946743596,286.56632447547935,235.26103832252193,4.25008069699652,-0.1142271166458082,235.26103832252193,4.25008069699652,-0.1142271166458082,235.26103832252193,4.25008069699652,-0.1142271166458082,235.26103832252193,4.25008069699652,-0.1142271166458082,3.0,3.7265802006188284,1.833623892379243E8,1.0,0.8271476722014407,4.876850810205173E7,0.0,0.0,0.0,0.0,0.0,0.0,-171.01058822916664,12006.428261457502,245485.55332460516,495.46498698152743,3318411.2853954495,-0.9631063338291477,0.618998303688623,1.0,48.0,795.694,-853.19824
Finger1,82.81650814668006,278.01886002132466,69.78916405140828,331.0357517163599,279.66139204222725,-43.27233153641373,0.6549078363331375,46.119628439575365,-0.10284240713071346,6.379998847348971E-5,46.119628439575365,-0.10284240713071346,6.379998847348971E-5,0.0,0.0,0.0,0.0,0.0,0.0,1.0,1.8062712023820875,1.0215750459463808E8,0.0,0.0,0.0,0.0,0.0,0.0,0.0,0.0,0.0,0.0,0.0,0.0,0.0,0.0,0.0,0.0,0.0
Finger1,159.962869971103,326.9720815885546,132.24425901690935,501.6043574411589,446.2072517517681,-14.632424683476188,0.29588935510686376,446.2072517517681,-14.632424683476188,0.29588935510686376,446.2072517517681,-14.632424683476188,0.29588935510686376,446.2072517517681,-14.632424683476188,0.29588935510686376,3.0,3.8512708295361278,3.8085167837788576E8,1.0,0.8351778991023925,1.1340142170574524E8,0.0,0.0,0.0,0.0,0.0,0.0,-44.0304761302326,13544.1614910183,529699.4063101772,727.8045110537425,5654443.565955385,-0.925739999621007,0.444647333665129,2.0,43.0,1344.3512,-1124.8077
Finger1,62.717992387127694,286.5152053263497,131.73840806668719,304.47927897939525,257.5550116872307,-3.657905221160263,0.07079160819573893,257.5550116872307,-3.657905221160263,0.07079160819573893,257.5550116872307,-3.657905221160263,0.07079160819573893,257.5550116872307,-3.657905221160263,0.07079160819573893,3.0,4.4416555586325375,9.675154838745606E7,0.0,0.7963083616011001,1.7728198517231688E7,1.0,0.8424154705755447,2.4591381420315564E7,0.0,0.0,0.0,-80.6527270857143,7806.754963196964,239057.74290245166,488.9353156629736,2090834.1019530024,-1.0289383745346274,0.44900460853876395,2.0,35.0,813.01575,-746.9513
Finger1,183.67272443089894,320.7965179893658,165.98573808770746,338.50556218346526,242.79068493235445,3.9887252849734978,-0.043820229965580326,242.79068493235445,3.9887252849734978,-0.043820229965580326,242.79068493235445,3.9887252849734978,-0.043820229965580326,242.79068493235445,3.9887252849734978,-0.043820229965580326,11.0,16.742293747454184,6.701188905044773E9,0.0,0.0,1210516.9892109009,2.0,3.6881023455088053,5.295057523438942E8,0.0,0.0,0.0,-93.04721882871287,29838.347060857664,427344.76205623394,653.7161173294062,1.0973556896657763E7,-0.8275625948146232,-0.4148321844944515,3.0,101.0,896.6034,-1569.1315
Finger1,461.16426875000957,1051.1511395217726,130.25354821042782,1166.7185082266524,526.6164858472221,-3.9963974279221475,0.1551189577938139,526.6164858472221,-3.9963974279221475,0.1551189577938139,526.6164858472221,-3.9963974279221475,0.1551189577938139,526.6164858472221,-3.9963974279221475,0.1551189577938139,6.0,8.86817478213816,1.0631171088128964E9,0.0,0.35600139796953756,5.655912328050867E7,1.0,0.8475539999670162,3.4415901856141245E8,0.0,0.0,0.0,-375.78953004761894,37994.67962738105,1740182.9849807671,1319.1599542818024,2.9937473628605764E7,-0.8372615914745634,0.17073774570782996,3.0,63.0,2333.8074,-2711.8652
Finger1,470.5642348996183,940.8315487120485,123.17524780325307,1003.8841603735467,49.429038031603284,-0.04907262030735543,1.170453575107112E-5,49.429038031603284,-0.04907262030735543,1.170453575107112E-5,0.0,0.0,0.0,49.429038031603284,-0.04907262030735543,1.170453575107112E-5,0.0,0.0,0.0,0.0,0.0,0.0,0.0,0.0,0.0,0.0,0.0,0.0,0.0,0.0,0.0,0.0,0.0,0.0,0.0,0.0,0.0,0.0,0.0
Finger1,104.65658861460606,421.445035941142,195.40844341842632,465.8734851322465,425.7648180552196,-78.414457403102,2.6310275797455063,425.7648180552196,-78.414457403102,2.6310275797455063,425.7648180552196,-78.414457403102,2.6310275797455063,425.7648180552196,-78.414457403102,2.6310275797455063,3.0,3.898887251412996,1.1952340306240577E8,0.0,0.3566695850180786,9192979.0367135,1.0,0.8325880643695645,5.421698705689786E7,0.0,0.0,0.0,-81.31857454687506,8901.08186489851,379439.15349261515,615.9863257350889,2998950.6214467543,-1.3493160115093767,-0.088863562011509,2.0,32.0,815.0299,-1086.438
