Klasse,minimumSteigungWert,maximumSteigungWert,minimumSenkungWert,maximumSenkungWert,steigungA,steigungB,steigungC,senkungA,senkungB,senkungC,mittelA,mittelB,mittelC,gesamtA,gesamtB,gesamtC,fftAnfangMedian,fftAnfangMittel,fftAnfangPSD,fftMitteMedian,fftMitteMittel,fftMittePSD,fftEndeMedian,fftEndeMittel,fftEndePSD,fftGesamtMedian,fftGesamtMittel,fftGesamtPSD,mittelwert,signalstärke,varianz,standardabweichung,energie,kurtosis,schiefe,zeroCrossings,laenge,maximalwert,minimalwert
Finger1,63.448971045027044,204.3095342887825,80.37960501628315,257.84070861306236,77.83421927857421,42.473411108260734,-30.629037634158408,77.83421927857421,42.473411108260734,-30.629037634158408,77.83421927857421,42.473411108260734,-30.629037634158408,178.96062382923992,0.18943642046257025,-7.583914490731924E-4,0.0,0.0,0.0,0.0,0.0,0.0,0.0,0.0,0.0,0.0,0.0,0.0,2.164584473544299,29637.693929806985,161507.39103519716,401.8798216322849,6351828.514407377,-1.5029345800546776,0.16292878897842716,8.0,158.0,637.5824,-553.5919
Finger1,79.27078810948797,236.95053910329278,87.1554011380885,309.6987911709942,237.64180421815183,-31.660698564646964,-0.0364433462425211,0.0,0.0,0.0,0.0,0.0,0.0,0.0,0.0,0.0,0.0,0.0,0.0,1.0,0.910395692061195,4.1993356644381694E7,0.0,0.0,0.0,0.0,0.0,0.0,0.0,0.0,0.0,0.0,0.0,0.0,0.0,0.0,0.0,0.0,0.0
Finger1,114.65175076472657,270.22770442114114,138.96492683624243,317.586154349264,0.0,0.0,0.0,203.0661887378344,0.024769216943525407,9.18609225527417E-5,270.24552675646646,-27.8584393758008,-0.6614426165837415,270.24552675646646,-27.8584393758008,-0.6614426165837415,0.0,0.0,0.0,0.0,0.7953796229871123,1.929799271888301E7,1.0,0.8381650808036653,2.315955308892117E7,0.0,0.0,0.0,16.539302746710522,98282.8592115992,210887.67443369245,459.22508036222547,2.4051472246344317E7,-1.5305078259681237,0.05568787865366717,23.0,456.0,757.82776,-683.8074
Finger1,6.772192245294444,358.16439708215455,187.9578912470027,397.80157467525004,0.0,0.0,0.0,0.0,0.0,0.0,0.0,0.0,0.0,0.0,0.0,0.0,0.0,0.0,0.0,0.0,0.7945060141465536,3.0117500645734854E7,1.0,0.8364940044196699,4.0292879055782884E7,0.0,0.0,0.0,0.0,0.0,0.0,0.0,0.0,0.0,0.0,0.0,0.0,0.0,0.0
Finger1,27.47674507019827,217.31084755448668,102.62719865617352,255.38629135626334,112.28638011247449,49.61530393998203,-4.159762989827843,220.63779137018508,-50.58620377864736,2.2690724296419518,220.63779137018508,-50.58620377864736,2.2690724296419518,112.28638011247449,49.61530393998203,-4.159762989827843,1.0,0.9924064827930429,408742.3468553128,0.0,0.3338222939094012,5941443.572353853,1.0,0.8415521129145519,1.4011303553140936E7,0.0,0.0,0.0,334.9682590666667,2671.743181832844,43761.0670180146,209.19146019380094,571389.5571450713,-1.7861870344565047,-0.26144802527339694,0.0,15.0,565.979,42.90161
Finger1,94.4389697367274,250.84259413457937,118.72686559641568,281.74167433812465,115.13302102085663,40.5828442888494,-1.385125598478112,115.13302102085663,40.5828442888494,-1.385125598478112,115.13302102085663,40.5828442888494,-1.385125598478112,115.13302102085663,40.5828442888494,-1.385125598478112,1.0,0.8855676297488932,1716988.33859292,0.0,0.7974462338764597,1.5081496617979407E7,0.0,0.0,0.0,0.0,0.0,0.0,400.148461764706,3754.5679909898577,52657.23722149167,229.4716479687451,914740.4042709706,-0.6427067374037461,-0.7439209860878461,1.0,17.0,651.6815,-109.16748
Finger1,72.66418434126246,272.97375861083833,65.50200976102423,316.63985062768234,127.07541573189633,5.490781208483895,-0.10897700847499614,127.07541573189633,5.490781208483895,-0.10897700847499614,127.07541573189633,5.490781208483895,-0.10897700847499614,127.07541573189633,5.490781208483895,-0.10897700847499614,3.0,3.953342799783678,5.4915781947921604E7,0.0,0.0,0.0,0.0,0.0,0.0,0.0,0.0,0.0,-92.38952579999997,7127.4382190876195,149630.53416104082,386.8210621993596,1551590.5216882415,-1.3362594457792003,-0.031390601595566975,2.0,40.0,530.12695,-738.89465
Finger1,48.90482860612852,283.20284498621265,157.9063740262353,366.4988364420179,146.03323434860886,37.937271731616875,-1.6826645990769258,146.03323434860886,37.937271731616875,-1.6826645990769258,146.03323434860886,37.937271731616875,-1.6826645990769258,146.03323434860886,37.937271731616875,-1.6826645990769258,1.0,1.7278122241241236,8.343305871583214E7,1.0,0.8357372567564165,3.95892926182878E7,0.0,0.0,0.0,0.0,0.0,0.0,-542.6469748000001,6786.955844183663,34685.806266626285,186.24125822874555,2023922.4203198696,-0.6071880334670188,0.6798805640666273,0.0,25.0,-163.14697,-792.0685
Finger1,344.3975798710261,598.9014821581826,134.94808927181,666.5451937408772,356.5023249248052,-0.7691158372825839,0.13893489158047423,356.5023249248052,-0.7691158372825839,0.13893489158047423,356.5023249248052,-0.7691158372825839,0.13893489158047423,356.5023249248052,-0.7691158372825839,0.13893489158047423,2.0,3.771911928265823,7.362405167251703E8,1.0,0.8315137297110284,1.3293009615609027E8,1.0,0.8335696254201644,1.1232246068630816E8,0.0,0.0,0.0,-34.21783472727268,18770.058533805714,863471.4348654333,929.231636819062,9691942.457885044,-1.3418734043815526,-0.2567957849807792,2.0,44.0,1387.0514,-1506.0883
Finger1,52.60600096713918,213.92355485352084,82.14158760118873,246.69454517067425,265.0774973693475,11.34981548662563,-6.3611312784297525,217.12985950266824,-44.38478529280013,2.1774657729646236,93.97182445960198,50.91109997158662,-4.044009841457999,217.12985950266824,-44.38478529280013,2.1774657729646236,2.0,2.1137712877523906,103858.88180980082,0.0,0.3347477534722342,5313537.944642439,1.0,0.8361203248540188,1.3738143521575104E7,0.0,0.0,0.0,296.86035266333334,2650.5728757704915,59929.73196007069,244.8054982227129,549163.8089995278,-1.6424641744329682,-0.3611512968592809,1.0,15.0,552.9877,-57.10144
Finger1,66.01926958590131,250.34217755340194,75.82658576502686,280.69429890889614,98.2280666891636,-5.1506232855318785,0.20829459065896394,98.2280666891636,-5.1506232855318785,0.20829459065896394,98.2280666891636,-5.1506232855318785,0.20829459065896394,98.2280666891636,-5.1506232855318785,0.20829459065896394,8.0,10.301877477026908,2.6600749605112635E7,0.0,0.3349319310857908,6061519.942937523,1.0,0.8314279539063243,2.0337144516645234E7,0.0,0.0,0.0,94.23459077209303,4902.011143790643,74758.27929864237,273.4196029889634,890962.4949319932,-0.48339024005999276,0.7281970479464417,7.0,43.0,699.0143,-284.50012
Finger1,227.12463759564446,429.95182241982195,100.48617126708297,511.9675756875489,55.34725336867905,85.11706775834818,-4.359534671287975,55.34725336867905,85.11706775834818,-4.359534671287975,55.34725336867905,85.11706775834818,-4.359534671287975,55.34725336867905,85.11706775834818,-4.359534671287975,1.0,1.6581005755545115,1.4552515399442092E7,0.0,0.3552207988949773,1.2832894787643623E7,0.0,0.0,0.0,0.0,0.0,0.0,597.8557421052631,6412.357779489494,131759.9946524673,362.98759572810104,2475154.460351702,-1.4623977885994266,-0.046796824381239326,0.0,19.0,1128.9368,55.08728
Finger1,86.69915019476315,310.88066548341754,114.44500425308804,326.93386987960156,90.01415754839377,71.496392612504,-5.232437880995704,90.01415754839377,71.496392612504,-5.232437880995704,90.01415754839377,71.496392612504,-5.232437880995704,90.01415754839377,71.496392612504,-5.232437880995704,1.0,0.8485288014730864,2841733.568163818,0.0,0.35931555770620127,4224499.59587882,0.0,0.0,0.0,0.0,0.0,0.0,-442.6989793333333,3546.40913922835,57899.21658777963,240.62256042977273,956555.5414887504,-1.5626984925912375,0.07536195530411602,0.0,15.0,-106.8512,-780.18494
Finger1,73.34943403536577,255.21575604508305,136.37490024854057,302.4060489128948,153.01761713281303,51.46799534381671,-4.711315036585312,153.01761713281303,51.46799534381671,-4.711315036585312,153.01761713281303,51.46799534381671,-4.711315036585312,153.01761713281303,51.46799534381671,-4.711315036585312,0.0,0.8548610355818921,296622.9049078497,0.0,0.353921021681145,4526033.612317861,1.0,0.829909219568635,1.9585913374418553E7,0.0,0.0,0.0,-372.7994627142857,2967.267202713526,72695.44693391991,269.62093192836477,721352.1129221971,-1.1831192298696303,0.5716854101377383,1.0,14.0,145.72449,-653.09143
Finger1,54.57957799578012,240.14628975813207,63.64756850717923,274.2652991793356,245.74851714924893,-69.21433444895825,6.013362779407544,333.4412979467627,-4.364859792890087,-0.027253459477174502,333.4412979467627,-4.364859792890087,-0.027253459477174502,333.4412979467627,-4.364859792890087,-0.027253459477174502,4.0,7.356576173214202,1.2705792381185195E9,0.0,0.0,720747.51399225,1.0,0.8455612231356577,1.5772896788653906E7,0.0,0.0,0.0,-415.73160971111116,9883.213111132982,118821.13249641174,344.70441322444907,3256683.085159221,-1.378109752271276,-0.3983223886433303,1.0,45.0,31.018066,-1014.8346
Finger1,208.44975503383955,373.0025825123493,86.66014607976771,369.66446401264415,370.7613850221994,-28.522853861263002,-0.688949441407658,370.7613850221994,-28.522853861263002,-0.688949441407658,370.7613850221994,-28.522853861263002,-0.688949441407658,370.7613850221994,-28.522853861263002,-0.688949441407658,1.0,1.1528129837038752,870761.1059708477,1.0,1.8805463110956828,2.0414142685369968E8,0.0,0.0,0.0,2.0,3.7174212911668185,6.548948636157454E8,599.5629354260868,7775.43167389409,105709.83542021153,325.1304898347916,2820506.6446937458,-0.8068932347466085,-0.9688304975352828,2.0,23.0,906.4728,-2.7191162
Finger1,47.3710758123364,194.1173942884843,197.24164796450788,231.9851271441549,0.0,0.0,0.0,436.5895173605468,-29.364985381732936,0.647970410868214,436.5895173605468,-29.364985381732936,0.647970410868214,0.0,0.0,0.0,3.0,3.960798990178049,2.6777997921215785E8,0.0,0.0,0.0,0.0,0.0,0.0,0.0,0.0,0.0,0.0,0.0,0.0,0.0,0.0,0.0,0.0,0.0,0.0,0.0,0.0
Finger1,219.03668744163744,653.8149706955269,71.55857385275029,702.998561318147,658.5312051971557,-113.79307576763495,5.050366882219635,658.5312051971557,-113.79307576763495,5.050366882219635,658.5312051971557,-113.79307576763495,5.050366882219635,-145.41651304812876,105.47673695568847,-3.920328154743615,3.0,3.234646197447562,5680800.485822292,0.0,0.3571633870326015,2.021492477790254E7,0.0,0.0,0.0,0.0,0.0,0.0,-561.2686151363637,8185.756427894874,466545.9380008634,683.0416810128526,4366608.456267975,-1.5738547095335116,-0.2977598044367355,3.0,22.0,268.18542,-1671.6522
Finger1,87.3027199514545,298.5686248788871,87.07307991362984,317.3590184284667,54.724625469033356,-0.1490919885591795,1.0076356803771465E-4,54.724625469033356,-0.1490919885591795,1.0076356803771465E-4,54.724625469033356,-0.1490919885591795,1.0076356803771465E-4,54.724625469033356,-0.1490919885591795,1.0076356803771465E-4,0.0,0.0,0.0,0.0,0.7884619214993592,1.8628039839448906E7,0.0,0.0,0.0,0.0,0.0,0.0,0.0,0.0,0.0,0.0,0.0,0.0,0.0,0.0,0.0,0.0,0.0
Finger1,151.3646151283453,381.5453605518687,64.26338396206565,442.317350690985,52.19064223457207,-0.11892514397339382,6.706500518557684E-5,52.19064223457207,-0.11892514397339382,6.706500518557684E-5,380.3874295702076,-9.577428925482081,-1.4683319947188664,0.0,0.0,0.0,0.0,0.0,0.0,1.0,0.8312437671946017,5.827947711461608E7,1.0,1.7786422587545183,1.5745534740186426E8,0.0,0.0,0.0,0.0,0.0,0.0,0.0,0.0,0.0,0.0,0.0,0.0,0.0,0.0
Finger1,71.56678619589518,281.9588525388139,165.63732090713887,302.1391468657101,161.27875086639347,52.39760878098343,-4.703867584767899,161.27875086639347,52.39760878098343,-4.703867584767899,161.27875086639347,52.39760878098343,-4.703867584767899,161.27875086639347,52.39760878098343,-4.703867584767899,0.0,0.0,0.0,0.0,0.35471601172738965,4212894.57026442,0.0,0.0,0.0,0.0,0.0,0.0,452.87672000000003,3173.6173608868658,31963.971451075107,178.78470698321797,803194.4377893339,-1.668754904052069,-0.17899669363795434,0.0,14.0,683.50525,206.95496
Finger1,77.03222989794713,273.8451063406604,66.52761813234615,326.77752212612705,118.74668266090794,-2.887651522334494,0.05135544344959553,118.74668266090794,-2.887651522334494,0.05135544344959553,118.74668266090794,-2.887651522334494,0.05135544344959553,118.74668266090794,-2.887651522334494,0.05135544344959553,12.0,17.347604207790333,3.8892244645341367E8,0.0,0.3571871986283297,4335661.365563856,1.0,0.8530127203205827,2.451986641138117E7,0.0,0.0,0.0,3.476163270114966,10607.218218457916,88625.68670654837,297.70066628502593,1925898.3604061692,0.23043376064410337,-0.2558793902306634,6.0,87.0,643.6249,-773.1354
Finger1,117.03638640126768,299.0934345953685,93.30188500331899,257.51441709523607,160.28421911908094,10.610728309303852,-0.24478633206430622,160.28421911908094,10.610728309303852,-0.24478633206430622,160.28421911908094,10.610728309303852,-0.24478633206430622,0.0,0.0,0.0,3.0,4.15596579557164,1.3800646642105752E8,1.0,1.7612220082059797,1.4391512166824204E8,1.0,1.8631467266813522,1.9255775932435825E7,0.0,0.0,0.0,-105.06134063636362,10374.786389591703,242058.8537415776,491.99477003478154,2777786.180522583,-1.4750767813822372,0.16874515605984866,3.0,44.0,670.6146,-759.4391
Finger1,110.49148927151197,345.96755372105963,61.5133883002717,356.71870138225114,303.7188810780294,-4.416151707967231,0.048084049584492305,303.7188810780294,-4.416151707967231,0.048084049584492305,348.0806967906774,-56.51424377831768,1.770815824313587,303.7188810780294,-4.416151707967231,0.048084049584492305,2.0,3.6555655224822403,2.858881815016835E8,0.0,0.0,979820.8398809999,1.0,0.8521533372178708,3.66369587968304E7,0.0,0.0,0.0,100.64646052805557,8868.637325131722,335182.6358949997,578.9495970246458,3067498.53305371,-0.870442102912174,0.26968863583537567,2.0,36.0,1163.0768,-871.02356
Finger1,297.33696232885654,831.7677739410893,141.46913500645385,922.3550278634387,476.860024601483,5.732204169742204,-0.04886576811822252,476.860024601483,5.732204169742204,-0.04886576811822252,476.860024601483,5.732204169742204,-0.04886576811822252,476.860024601483,5.732204169742204,-0.04886576811822252,2.0,3.4571479538875827,7.438121671092689E8,0.0,0.35629920303566565,4.215786018913664E7,1.0,0.8343661905758406,2.0926962583768618E8,0.0,0.0,0.0,9.673128307692377,21915.72621016481,1532846.7295195702,1238.0818751276388,1.4856748468886819E7,-1.3272144915102855,-0.20160272542761518,1.0,39.0,1823.7213,-1999.2554
Finger1,102.02409597104999,294.2692285003718,104.24627051819053,343.3761206529943,129.24093061022336,4.595421810860842,-0.05622341575877421,129.24093061022336,4.595421810860842,-0.05622341575877421,129.24093061022336,4.595421810860842,-0.05622341575877421,129.24093061022336,4.595421810860842,-0.05622341575877421,7.0,8.505541740046915,5.030952542823385E8,0.0,0.0,0.0,1.0,0.8418837198221337,2.7925370265792336E7,0.0,0.0,0.0,-59.35599900322579,12343.822696270643,197048.43225736183,443.90137672388653,3094661.398317324,-0.7808592520683408,-0.15303576176400568,3.0,62.0,780.38635,-954.5105
Finger1,108.50886033687095,304.9677372752246,133.4157223975226,328.8094554594003,347.6281902046867,8.04641494896805,-4.377971773917352,347.6281902046867,8.04641494896805,-4.377971773917352,347.6281902046867,8.04641494896805,-4.377971773917352,347.6281902046867,8.04641494896805,-4.377971773917352,3.0,4.173501551429803,1.2809140650200742E8,0.0,0.33384014283746666,9637642.876669984,0.0,0.0,0.0,0.0,0.0,0.0,-23.551287085714318,7956.359664018825,243622.8257974058,493.5816303281614,2106638.572811266,-1.4736573016427572,-0.00287448035407672,2.0,35.0,696.7987,-734.86633
Finger1,184.50390505229382,368.42999759625314,119.91983575755688,373.60166507376476,393.5013248676587,28.69126508927411,-6.708448396785798,393.5013248676587,28.69126508927411,-6.708448396785798,393.5013248676587,28.69126508927411,-6.708448396785798,393.5013248676587,28.69126508927411,-6.708448396785798,1.0,1.8232371538228287,3.5972712961687595E7,0.0,0.0,0.0,0.0,0.0,0.0,0.0,0.0,0.0,-487.4397520967742,8116.437786884097,57026.41566041699,238.8020428313313,2388174.137794052,-1.2785452331005118,-0.16021622682365427,0.0,31.0,-113.497925,-900.6317
Finger1,75.04831173095347,255.7536084973547,113.8809514302879,299.54029883706175,261.7155428896795,-73.34160800411667,6.9680741938278885,261.7155428896795,-73.34160800411667,6.9680741938278885,261.7155428896795,-73.34160800411667,6.9680741938278885,261.7155428896795,-73.34160800411667,6.9680741938278885,3.0,4.022440222537219,3.990306214972792E7,0.0,0.0,895393.6802059535,0.0,0.0,0.0,0.0,0.0,0.0,25.564098156249973,4590.254612713286,105524.30635048325,324.84504975523834,820343.2522914541,-0.8769906303381956,0.7931515511740421,2.0,32.0,700.6256,-320.15076
Finger1,109.25870546886836,360.38806041974294,45.39958363785652,386.1249223780103,166.4180345646007,4.685869641617444,-0.06700743459640535,166.4180345646007,4.685869641617444,-0.06700743459640535,166.4180345646007,4.685869641617444,-0.06700743459640535,166.4180345646007,4.685869641617444,-0.06700743459640535,2.0,3.754708303924455,7.196301977022073E7,0.0,0.0,1499668.1825683597,0.0,0.0,0.0,0.0,0.0,0.0,-36.60736214705885,7447.449897749632,232047.20602384463,481.712783745506,1969133.9288198375,-1.2409880557970654,-0.2086735842086195,1.0,34.0,604.04663,-901.03455
Finger1,69.57764215493418,226.50927255021844,83.10420275806194,270.63584466853786,112.06011063541337,-3.7962698605466016,0.05920515235088131,112.06011063541337,-3.7962698605466016,0.05920515235088131,112.06011063541337,-3.7962698605466016,0.05920515235088131,112.06011063541337,-3.7962698605466016,0.05920515235088131,15.0,20.77703274052249,1.2378841486073525E8,0.0,0.3553238741649363,2498022.9305672776,1.0,0.8398644354582201,1.7042750210768837E7,0.0,0.0,0.0,50.20230345696202,6702.6208608779925,41806.59956991752,204.4666221414085,876419.1417652153,1.0697134632088092,0.8929666345904026,7.0,79.0,681.8939,-298.80066
Finger1,17.05919047246995,205.8592691599487,102.65298685948916,252.32264612738774,212.30983993977569,-74.26746984781613,6.846717622229576,209.11307354389612,-10.554519534841077,0.1632846710053828,212.30983993977569,-74.26746984781613,6.846717622229576,209.11307354389612,-10.554519534841077,0.1632846710053828,7.0,8.69189072343023,1.6024521756718686E8,0.0,0.3550318518380686,2888848.0558665874,0.0,0.0,0.0,0.0,0.0,0.0,4.379225043124954,6040.692288944281,63422.300752192285,251.8378461474611,988108.643920572,0.40514606566139433,-0.12352127423522835,8.0,64.0,557.2174,-606.3629
Finger1,105.64089729333524,412.5415004879887,87.57837957885468,454.4532359435698,214.1604660603275,-11.926686896980812,0.2728200727850969,214.1604660603275,-11.926686896980812,0.2728200727850969,214.1604660603275,-11.926686896980812,0.2728200727850969,214.1604660603275,-11.926686896980812,0.2728200727850969,6.0,8.664000289417702,1.384428805007639E8,0.0,0.35540057230445093,9062006.99503442,1.0,0.8402499973993169,5.029303123978957E7,0.0,0.0,0.0,-90.25236029464288,9171.176027464315,165899.88392665816,407.30809459997005,2430330.5711264913,-0.04537099292867408,-0.7256458719701333,6.0,56.0,538.88855,-1059.0454
Finger1,21.163339581844845,217.75397721654886,101.0360013252333,232.2980052471827,252.63308737493333,-2.62124060695794,0.010066007482108785,252.63308737493333,-2.62124060695794,0.010066007482108785,252.63308737493333,-2.62124060695794,0.010066007482108785,252.63308737493333,-2.62124060695794,0.010066007482108785,23.0,35.11761812495574,4.758409492006733E9,0.0,0.0,309818.2098851856,1.0,0.8488732971995504,1.3614833514857177E7,0.0,0.0,0.0,7.739616032602033,24495.279984510664,90807.3809056248,301.3426304153211,4423762.13818193,0.4231166149431429,0.5556775168679784,17.0,196.0,940.10925,-556.8146
Finger1,52.97475678005731,209.25703488331231,66.59131083721189,223.08259567646292,67.15252902714155,53.05545092499301,-4.347834825714415,67.15252902714155,53.05545092499301,-4.347834825714415,67.15252902714155,53.05545092499301,-4.347834825714415,67.15252902714155,53.05545092499301,-4.347834825714415,2.0,1.8105108683916546,48708.944028115606,0.0,0.35571778829799616,1838493.808203939,1.0,0.8435348031860777,1.3399466853739414E7,0.0,0.0,0.0,253.12957635714287,2207.304718965761,54630.22968533885,233.73110551515998,409228.27556805336,-1.5954717241289174,-0.2688923765285777,1.0,14.0,544.12537,-90.43579
Finger1,128.62696099857945,335.5377698247371,93.5672648629895,361.5934202624998,138.43005317864936,25.885111146365887,-1.0127736451001148,138.43005317864936,25.885111146365887,-1.0127736451001148,138.43005317864936,25.885111146365887,-1.0127736451001148,138.43005317864936,25.885111146365887,-1.0127736451001148,1.0,1.7468384747855876,1.4760568640267234E7,0.0,0.35765176409497984,5832020.564318579,1.0,1.8927934825795831,1.703222198905122E8,0.0,0.0,0.0,-433.8213246428572,6642.0921431690485,54540.7033422764,233.53951130863572,1749069.2548722776,-0.18988945331211893,0.37764255201680214,1.0,28.0,106.448364,-827.92053
Finger1,138.98244213124008,430.2954206444083,153.8188824837592,480.56395709550736,208.13015433735927,8.698087371552333,-0.16935643687117974,208.13015433735927,8.698087371552333,-0.16935643687117974,208.13015433735927,8.698087371552333,-0.16935643687117974,208.13015433735927,8.698087371552333,-0.16935643687117974,4.0,4.871448146926666,1.185228047213897E8,0.0,0.0,0.0,0.0,0.0,0.0,2.0,3.506733157641058,6.72790240339397E7,-145.85205559999994,8578.728321394457,370066.908941582,608.3312493548084,2888480.491909909,-1.3795734999027212,-0.025715731255386842,2.0,30.0,721.17004,-1102.4506
Finger1,100.16473371858127,353.94707161998406,110.59882301329735,374.69740450931977,0.0,0.0,0.0,0.0,0.0,0.0,0.0,0.0,0.0,0.0,0.0,0.0,0.0,0.0,0.0,0.0,0.0,0.0,0.0,0.0,0.0,0.0,0.0,0.0,0.0,0.0,0.0,0.0,0.0,0.0,0.0,0.0,0.0,0.0,0.0
Finger1,79.26364803431353,263.2318060130394,87.80517962634325,292.98370040542034,190.35690460252795,-5.927072086376768,0.0885909264800977,190.35690460252795,-5.927072086376768,0.0885909264800977,190.35690460252795,-5.927072086376768,0.0885909264800977,190.35690460252795,-5.927072086376768,0.0885909264800977,13.0,17.278705996789316,5.710105997382768E8,0.0,0.35744340860357354,3854498.342574247,1.0,0.8450785838462567,2.1529860840677794E7,0.0,0.0,0.0,66.63954939473682,10283.337709091928,87704.9186001097,296.15016224900114,1745366.47399824,-1.049521901374332,0.2656892662389387,4.0,76.0,669.0033,-342.70935
Finger1,82.19583411454278,264.86300996480264,105.73031739327982,287.2019462540903,114.3510464351582,60.342416581604994,-5.632266010245395,114.3510464351582,60.342416581604994,-5.632266010245395,114.3510464351582,60.342416581604994,-5.632266010245395,114.3510464351582,60.342416581604994,-5.632266010245395,0.0,0.9807738596583021,157114.61010969098,0.0,0.0,779702.8101811524,1.0,0.836501727086355,2.0238176891761173E7,0.0,0.0,0.0,332.40614784615383,2532.2991915062557,70127.06989486584,264.81516175412963,574799.2459616176,-1.5286927132806185,-0.21498048037655706,1.0,13.0,664.77356,-87.91809
Finger1,131.13198809660523,281.874797600289,89.65677431591091,310.97598408987835,87.51235783352627,62.82309612931056,-4.4018093367822,87.51235783352627,62.82309612931056,-4.4018093367822,87.51235783352627,62.82309612931056,-4.4018093367822,87.51235783352627,62.82309612931056,-4.4018093367822,1.0,0.9171886668351797,725968.5246060963,0.0,0.357076434093845,4337006.9221685,1.0,0.8432947341294469,2.539599342481414E7,0.0,0.0,0.0,-383.0194086,3441.2739851217098,73166.24662863053,270.4925999517002,873352.5730335234,-1.4686882148341984,0.3927905036891495,1.0,15.0,53.778076,-718.1488
Finger1,10.611107206816966,163.2696104546999,62.15229255254918,183.0704862749484,146.88848436054388,-3.4870670027449933,0.0736511371237345,146.88848436054388,-3.4870670027449933,0.0736511371237345,146.88848436054388,-3.4870670027449933,0.0736511371237345,146.88848436054388,-3.4870670027449933,0.0736511371237345,2.0,3.6627970350373054,5.3788220730124235E7,0.0,0.7814636760184139,6056647.621888159,0.0,0.0,0.0,0.0,0.0,0.0,-5.575965547794122,8334.847148352841,27547.869682493387,165.97550928523577,930195.7479105918,0.8911036019809679,-0.16621529790497608,15.0,136.0,361.0382,-483.70056
Finger1,46.37400965657829,194.10080944258306,87.66954927746461,179.0780035508749,26.874027608757274,-0.039741878506912465,2.2879463642220274E-5,26.874027608757274,-0.039741878506912465,2.2879463642220274E-5,26.874027608757274,-0.039741878506912465,2.2879463642220274E-5,0.0,0.0,0.0,0.0,0.0,0.0,2.0,4.045048287552184,1.4159108193725782E7,1.0,0.838310319300068,1.1551635077442681E7,0.0,0.0,0.0,0.0,0.0,0.0,0.0,0.0,0.0,0.0,0.0,0.0,0.0,0.0
Finger1,142.5591386652581,326.9420069343492,176.4242288207117,382.8854894584126,198.2993904824466,59.50044972393596,-5.174918001298295,198.2993904824466,59.50044972393596,-5.174918001298295,198.2993904824466,59.50044972393596,-5.174918001298295,198.2993904824466,59.50044972393596,-5.174918001298295,1.0,1.2604345850200311,1221890.6555704672,0.0,0.3510876599438313,7627333.08304893,0.0,0.0,0.0,0.0,0.0,0.0,398.9188028571429,3952.4745505521105,196253.25348263665,443.00480074445767,1215125.9279506023,-1.4827453869583456,-0.5873770486283091,1.0,14.0,820.77026,-297.59216
Finger1,83.01756911557426,299.17259873033976,129.2938409488556,379.6086224713434,300.21529591893614,-42.0508755847884,-0.3041677060941481,300.21529591893614,-42.0508755847884,-0.3041677060941481,300.21529591893614,-42.0508755847884,-0.3041677060941481,181.3139722599999,4.957126765606631,-0.055976936896962926,0.0,0.0,0.0,2.0,3.37046435535262,4.545852117513517E8,1.0,0.8368230648664293,2.8823105852769833E7,0.0,0.0,0.0,-223.69291849275362,18143.050322347066,268892.5012139777,518.5484559942086,5444677.341410063,-1.1808418430658636,0.4587781961745781,3.0,69.0,729.4281,-972.73865
Finger1,198.2468705764433,388.57735689353285,96.04616703686025,462.87498465984135,213.7502606594876,1.0465631138285971,0.042298406082343476,213.7502606594876,1.0465631138285971,0.042298406082343476,213.7502606594876,1.0465631138285971,0.042298406082343476,213.7502606594876,1.0465631138285971,0.042298406082343476,6.0,8.48793073758802,6.269510264329554E8,0.0,0.3537197902307854,1.0722228829512771E7,0.0,0.0,0.0,0.0,0.0,0.0,-11.824992767441861,11218.512421899548,326727.5848245731,571.6008964518627,3560251.1944489307,-1.0968464499941382,-0.11433785480536764,2.0,43.0,993.5852,-1007.2815
Finger1,41.713848155009714,116.85348993544768,56.87404301104498,156.1871865974911,55.537023514862625,-0.1209247326657692,7.648183649969838E-5,55.537023514862625,-0.1209247326657692,7.648183649969838E-5,55.537023514862625,-0.1209247326657692,7.648183649969838E-5,55.537023514862625,-0.1209247326657692,7.648183649969838E-5,7.0,9.311891818435823,4.16567576250839E7,0.0,0.3363789902101177,1870144.6740165006,0.0,0.0,0.0,0.0,0.0,0.0,0.0,0.0,0.0,0.0,0.0,0.0,0.0,0.0,0.0,0.0,0.0
Finger1,63.76423231899128,226.42655757083773,133.22153819492596,253.67110038846874,460.5016366589998,-13.17333695756571,0.09752064974283675,460.5016366589998,-13.17333695756571,0.09752064974283675,460.5016366589998,-13.17333695756571,0.09752064974283675,460.5016366589998,-13.17333695756571,0.09752064974283675,10.0,15.6951634852271,3.438157317299658E9,0.0,0.0,0.0,0.0,0.0,0.0,0.0,0.0,0.0,-119.88263485486726,14959.109047546624,140355.67061288582,374.64072204298054,4337641.679754115,1.091858435520126,-1.1406963004515325,5.0,113.0,596.2921,-1217.6605
Finger1,74.00661312064948,323.1559986915985,121.7029005565888,389.4925448688159,0.0,0.0,0.0,0.0,0.0,0.0,406.3324258522521,4.82268415507815,-4.406918140583457,259.50333664163327,-9.030929641246786,0.1350539548595142,13.0,18.032028421682895,5.256949821749282E8,0.0,0.7945163878287774,2.8861483960642967E7,0.0,0.0,0.0,0.0,0.0,0.0,-27.87453855357143,15501.572981387782,182033.27807199926,426.6535808732879,3799208.9983703536,-0.7857862392543455,0.03475622876217099,5.0,84.0,817.4469,-867.9016
Finger1,82.30687518408085,288.51593468826087,143.79413292765258,304.77307039522145,330.9103605517571,4.113562564303038,-0.5950728295839056,330.9103605517571,4.113562564303038,-0.5950728295839056,330.9103605517571,4.113562564303038,-0.5950728295839056,330.9103605517571,4.113562564303038,-0.5950728295839056,3.0,4.071107461587905,2.6616609718871617E8,0.0,0.33376525602622853,8175282.035175634,1.0,0.8393099741621138,2.4642707332989592E7,0.0,0.0,0.0,41.00704195937501,8626.089018683977,358371.8059749749,598.6416340140191,2808520.6297558085,-1.3273369397857595,0.4069995181316992,2.0,32.0,1057.3334,-739.4989
Finger1,111.70765242841881,226.05442502249417,77.89595122317273,253.89104241436934,147.3522928663856,5.854944647099103,-0.3311885348163237,147.3522928663856,5.854944647099103,-0.3311885348163237,147.3522928663856,5.854944647099103,-0.3311885348163237,147.3522928663856,5.854944647099103,-0.3311885348163237,4.0,5.035323458930982,1.0195486178464936E7,0.0,0.35430112891366633,2723564.2224100577,3.0,4.93548138093146,5.386321369639883E7,0.0,0.0,0.0,31.614414880392147,5701.819767650468,72756.02477090033,269.733247433275,964870.4488603944,-0.3286680301788487,0.20388523252505955,4.0,51.0,600.62256,-455.0995
Finger1,216.2837959769198,498.2111180011351,87.81532020942358,537.6497094525691,551.2810598762974,-7.314411163330078,-7.314414978027344,551.2810598762974,-7.314411163330078,-7.314414978027344,551.2810598762974,-7.314411163330078,-7.314414978027344,551.2810598762974,-7.314411163330078,-7.314414978027344,1.0,0.88793161217565,7198308.613108385,0.0,0.0,3451274.4469123604,0.0,0.0,0.0,1.0,1.7825329962584173,2.5204964676429528E8,-605.3243667312499,5647.555035273626,188198.63784467877,433.81866931320366,2338133.9147143187,-1.7038896568508626,0.04267544683594744,1.0,16.0,4.1290283,-1199.5331
Finger1,130.16581673081498,278.51608926169934,98.58442399598482,329.56796085938186,277.91020890191885,-32.03397166059494,0.5542788840471076,277.91020890191885,-32.03397166059494,0.5542788840471076,277.91020890191885,-32.03397166059494,0.5542788840471076,277.91020890191885,-32.03397166059494,0.5542788840471076,11.0,16.23038045273663,1.0839081211231759E9,0.0,0.0,0.0,0.0,0.0,0.0,11.0,16.22669839792853,1.7237289446371047E9,-16.262636650762687,16762.870918576336,126748.45297148266,356.0174896988667,3778107.0740699805,0.33007399794652015,-0.25344765373425204,9.0,118.0,808.9874,-928.4271
Finger1,91.34141504319116,290.4330793051535,79.54686367779038,309.8465325090483,172.4527591840199,4.061975152225898,-0.11541993954840901,172.4527591840199,4.061975152225898,-0.11541993954840901,172.4527591840199,4.061975152225898,-0.11541993954840901,172.4527591840199,4.061975152225898,-0.11541993954840901,0.0,0.0,0.0,0.0,0.0,1145379.3673670404,0.0,0.0,0.0,7.0,9.594339631202189,1.9161761984273452E8,-37.295532357142875,7990.958113537267,166878.17562434985,408.5072528417945,1755466.511045945,-1.2977479731682828,0.11321261251499035,2.0,42.0,670.3125,-714.3219
Finger1,252.8991293366581,486.5795136638956,59.199598545831314,533.1228782005356,489.59605019711967,-81.63131612246934,6.8000452858472045,489.59605019711967,-81.63131612246934,6.8000452858472045,489.59605019711967,-81.63131612246934,6.8000452858472045,489.59605019711967,-81.63131612246934,6.8000452858472045,0.0,0.0,0.0,0.0,0.35623943654173484,1.2726614819850339E7,1.0,0.8455858421580731,7.212099052479145E7,0.0,0.0,0.0,-102.16267822222223,10252.155875169776,394148.64519291295,627.8125876349669,3745726.397141759,-1.1809987555743975,-0.32297422389700725,2.0,36.0,766.38794,-1230.954
Finger1,42.020191926308975,278.1601783444072,130.55499278006397,290.02096245746606,314.8691001654536,15.017315645856797,-6.265297875726446,314.8691001654536,15.017315645856797,-6.265297875726446,314.8691001654536,15.017315645856797,-6.265297875726446,314.8691001654536,15.017315645856797,-6.265297875726446,1.0,1.124044439905869,143107.81370743824,0.0,0.3345211301045555,6917621.9174614055,0.0,0.0,0.0,0.0,0.0,0.0,-417.15175323809524,4772.800950312267,64291.239417480385,253.55717189123322,1219155.6615686128,0.2857836813803383,1.1061005899023437,1.0,21.0,229.81567,-713.61694
Finger1,59.535006049580566,221.16077830781083,70.10693747333721,232.69329303153947,62.63918360792829,-0.12326412814701737,6.647284215356957E-5,0.0,0.0,0.0,62.63918360792829,-0.12326412814701737,6.647284215356957E-5,62.63918360792829,-0.12326412814701737,6.647284215356957E-5,0.0,0.0,0.0,0.0,0.7857414117653776,1.0001205890364492E7,1.0,0.8467611983560608,1.5070827947824052E7,0.0,0.0,0.0,0.0,0.0,0.0,0.0,0.0,0.0,0.0,0.0,0.0,0.0,0.0
Finger1,61.65312313797648,231.1503837361198,98.17893528626334,233.12125042950876,91.12967954644682,50.88695984949209,-3.661415378428849,91.12967954644682,50.88695984949209,-3.661415378428849,91.12967954644682,50.88695984949209,-3.661415378428849,91.12967954644682,50.88695984949209,-3.661415378428849,1.0,1.0930852796606325,72646.00596573506,0.0,0.7908009371998779,1.0193299093267286E7,0.0,0.0,0.0,0.0,0.0,0.0,332.6574293125,3024.3549863417174,55190.324593732395,234.92621095512607,656895.2104129618,-1.1503879959228536,-0.5539895301224393,1.0,16.0,604.34875,-117.42554
Finger1,54.75447222011319,344.19366990635734,62.325850144453106,395.5722943835163,348.9981203085531,-74.6497456441075,3.0116758855626244,348.9981203085531,-74.6497456441075,3.0116758855626244,348.9981203085531,-74.6497456441075,3.0116758855626244,348.9981203085531,-74.6497456441075,3.0116758855626244,8.0,11.618967389403647,2.014614936554954E7,0.0,0.0,1796195.4381550658,0.0,0.0,0.0,0.0,0.0,0.0,-83.11372563529412,6457.901835543671,100649.82262109501,317.2535620305862,1356763.8944921857,0.26466975201183596,-1.1358380482984851,3.0,51.0,282.18384,-886.12976
Finger1,71.20178345469577,230.91834874461654,69.58782998886635,264.97126820029837,26.539930735969165,15.263721577101194,-0.36155333724259897,26.539930735969165,15.263721577101194,-0.36155333724259897,26.539930735969165,15.263721577101194,-0.36155333724259897,26.539930735969165,15.263721577101194,-0.36155333724259897,4.0,5.770670093421636,1.292996953096332E7,0.0,0.36086130289947843,2880457.7566641876,0.0,0.0,0.0,0.0,0.0,0.0,114.64347794250001,4654.144125339762,90426.14605652505,300.70940466923383,826399.7039519772,-0.9893022722111402,-0.06703721860341433,4.0,32.0,649.8688,-408.37097
Finger1,70.73914301089333,283.74337857686294,72.61494400032093,372.3737051063783,34.395361793807524,65.29742404480828,-3.2370102103468987,34.395361793807524,65.29742404480828,-3.2370102103468987,34.395361793807524,65.29742404480828,-3.2370102103468987,34.395361793807524,65.29742404480828,-3.2370102103468987,1.0,1.7252621529451426,6917992.027766673,1.0,0.834518610261506,3.925254612823191E7,1.0,0.8414433014512025,2.4294299752089612E7,0.0,0.0,0.0,-455.2577408952381,5144.542343728019,79085.63203925741,281.2216777548584,1503471.5927624775,-1.3911449382927283,0.30359224800476226,1.0,21.0,2.8198242,-837.3871
Finger1,35.413925065863246,186.65800409129304,93.87843576346742,189.25714540068162,192.39626110191122,-60.50971415024196,5.545245296940429,192.39626110191122,-60.50971415024196,5.545245296940429,192.39626110191122,-60.50971415024196,5.545245296940429,192.39626110191122,-60.50971415024196,5.545245296940429,8.0,10.043973890269996,5.0362676939361736E7,0.0,0.7846354076159874,6462918.778532182,1.0,0.842563803908996,9732854.115413878,0.0,0.0,0.0,-101.99706962000002,5084.080670470428,39045.99592992969,197.60059698778667,666713.9987837533,-0.882516904075497,-0.4348240672234512,5.0,55.0,191.94946,-528.2135
Finger1,29.819214330447448,179.41301925919743,90.47718165897567,202.04123892876066,180.62034228308,-45.287817295406,2.9579220216550937,180.62034228308,-45.287817295406,2.9579220216550937,180.62034228308,-45.287817295406,2.9579220216550937,180.62034228308,-45.287817295406,2.9579220216550937,0.0,0.0,0.0,0.0,0.33539204566130165,3195652.6034341953,0.0,0.0,0.0,0.0,0.0,0.0,-29.95382787387387,9145.690840146632,39226.59412450447,198.05704765169168,1099429.6983929947,-0.04661768845287906,0.03734594576580034,11.0,111.0,463.9618,-515.7257
Finger1,210.5879989598848,476.5405811533784,133.9958348118827,517.865995003401,479.3967884322542,-68.4156336261824,2.811712690690115,479.3967884322542,-68.4156336261824,2.811712690690115,479.3967884322542,-68.4156336261824,2.811712690690115,479.3967884322542,-68.4156336261824,2.811712690690115,1.0,1.175262370380202,3554130.965954211,0.0,0.0,3127353.966848717,1.0,0.8378730129399928,6.892588407092865E7,0.0,0.0,0.0,-580.8166536666666,5398.4935305520285,224602.29680439507,473.922247636039,2186067.4145549187,-1.3894978930604291,0.3956981740313308,1.0,15.0,231.02417,-1163.4796
Finger1,234.5825520678354,381.3881713441873,92.1352554166184,427.8283753691137,122.5668807355396,74.58402617027957,-4.1787777623515225,122.5668807355396,74.58402617027957,-4.1787777623515225,122.5668807355396,74.58402617027957,-4.1787777623515225,122.5668807355396,74.58402617027957,-4.1787777623515225,1.0,1.036163017259388,1261383.5022988985,1.0,0.8511618030498178,5.5144780227851026E7,0.0,0.0,0.0,0.0,0.0,0.0,589.7908511666666,6158.4415527207475,131435.859249597,362.54083804393264,2307117.1363216843,-1.4590412557781283,-0.5608733137452568,1.0,18.0,951.9928,-40.283203
Finger1,50.98058379545019,293.17425043449833,85.35743624650844,339.36239050781177,76.067139682071,79.8135992193279,-6.598095044142923,0.0,0.0,0.0,76.067139682071,79.8135992193279,-6.598095044142923,76.067139682071,79.8135992193279,-6.598095044142923,1.0,0.969853993536492,320644.060971532,0.0,0.0,1084768.4930928398,0.0,0.0,0.0,1.0,1.7305572231940332,6.309515823326769E7,352.68663635714285,2924.13764411545,97748.45160393945,312.6474877620792,755992.3406431848,-1.505510889556436,-0.04483096191410496,1.0,14.0,812.3108,-99.3988
Finger1,98.96336443082093,343.37758490061105,150.10055369475185,373.0378323276162,347.68642195204006,-54.93770541889205,0.8662701089308484,347.68642195204006,-54.93770541889205,0.8662701089308484,347.68642195204006,-54.93770541889205,0.8662701089308484,347.68642195204006,-54.93770541889205,0.8662701089308484,3.0,2.559050258849995,111354.97559156596,0.0,0.0,1601737.1332540514,1.0,0.837597099185719,3.5386370942555785E7,1.0,1.701939261013232,7.702393274626756E7,424.03493961538464,3423.9676939087904,137531.34363572497,370.8521856963027,1018773.8379954603,-1.4855651338489742,-0.45759205134553127,1.0,13.0,821.77734,-171.0022
Finger1,35.01479201613651,209.56455378454055,144.61985787493973,218.5101275793505,50.33925265951365,-0.07987548407201722,3.832911785817036E-5,50.33925265951365,-0.07987548407201722,3.832911785817036E-5,50.33925265951365,-0.07987548407201722,3.832911785817036E-5,50.33925265951365,-0.07987548407201722,3.832911785817036E-5,185.0,269.9150410629762,9.864211053483885E9,0.0,0.35773221282548534,1637753.894123143,0.0,0.0,0.0,0.0,0.0,0.0,0.0,0.0,0.0,0.0,0.0,0.0,0.0,0.0,0.0,0.0,0.0
Finger1,246.22902537102215,452.0270990836684,88.91452020841562,487.4462783309938,231.895065086022,4.218735151837905,-0.008106686836184096,231.895065086022,4.218735151837905,-0.008106686836184096,231.895065086022,4.218735151837905,-0.008106686836184096,231.895065086022,4.218735151837905,-0.008106686836184096,4.0,5.030880705425554,7.655556578425331E7,0.0,0.0,0.0,1.0,0.8536346303461447,6.162935523705483E7,0.0,0.0,0.0,-126.69067182857145,10515.534686320143,377213.9692512239,614.1774737412826,3537211.4733277657,-1.2967206450238926,0.16373025274822608,1.0,35.0,816.3391,-1147.5677
Finger1,326.1788501977606,580.5341157893811,112.28506466257616,653.2110153071981,248.96365048090502,-3.0365310669822634,0.0871915903685978,248.96365048090502,-3.0365310669822634,0.0871915903685978,248.96365048090502,-3.0365310669822634,0.0871915903685978,248.96365048090502,-3.0365310669822634,0.0871915903685978,10.0,17.23481636969798,1.714007335973198E9,0.0,0.0,4365125.600516891,1.0,0.8472003810201842,1.0678428578857385E8,0.0,0.0,0.0,30.231201753333348,22263.081020233963,450680.41044431046,671.3273496918702,8683531.065496791,-0.4052577409434379,-0.05068107800139889,4.0,75.0,1439.0167,-1512.2314
Finger1,133.38995759140582,304.70792681025546,89.93367983181928,305.4813158214949,51.88412298575756,-0.13092454983312862,9.58533142188736E-5,0.0,0.0,0.0,51.88412298575756,-0.13092454983312862,9.58533142188736E-5,0.0,0.0,0.0,0.0,0.0,0.0,0.0,0.0,0.0,0.0,0.0,0.0,0.0,0.0,0.0,0.0,0.0,0.0,0.0,0.0,0.0,0.0,0.0,0.0,0.0,0.0
Finger1,209.09544475322195,457.3970607594544,94.80453298404089,517.0950075514224,450.5511107175164,-24.085518613830345,-1.4021440170026267,450.5511107175164,-24.085518613830345,-1.4021440170026267,450.5511107175164,-24.085518613830345,-1.4021440170026267,450.5511107175164,-24.085518613830345,-1.4021440170026267,0.0,0.0,0.0,1.0,0.8423337794706124,8.118540396358378E7,1.0,0.8299952254510917,1.0421684827746342E8,0.0,0.0,0.0,0.0,0.0,0.0,0.0,0.0,0.0,0.0,0.0,0.0,0.0,0.0
Finger1,82.07220270642242,317.25012186271493,124.71810456098544,352.76453898112453,365.7524936031959,-6.600257873535156,-6.600257873535156,365.7524936031959,-6.600257873535156,-6.600257873535156,365.7524936031959,-6.600257873535156,-6.600257873535156,365.7524936031959,-6.600257873535156,-6.600257873535156,1.0,0.8654600836118113,3728714.3766982555,0.0,0.0,1336864.6679562498,1.0,0.8371616891649833,2.952929171210872E7,0.0,0.0,0.0,-448.4096007142857,3313.5025901399767,60963.243772734255,246.9073586848603,909211.377758901,-1.7034295848893763,-0.11300530202571578,0.0,14.0,-152.87476,-795.694
Finger1,361.4755003485049,773.3010985451026,193.15337293024652,817.8476477013986,473.71134228861047,0.5286189082215742,0.11357545823329573,473.71134228861047,0.5286189082215742,0.11357545823329573,473.71134228861047,0.5286189082215742,0.11357545823329573,473.71134228861047,0.5286189082215742,0.11357545823329573,2.0,3.907597210546772,8.059482067791513E8,0.0,0.3543543091393757,2.9746213829838738E7,0.0,0.0,0.0,0.0,0.0,0.0,18.216298338235294,17825.727766267035,1275804.1845654594,1129.5150218414358,1.0952812716242298E7,-1.3146108243985184,-0.2889084859782782,2.0,34.0,1520.5902,-1855.7465
Finger1,52.10330118238914,254.23396665280373,89.73109316380611,318.5432547366054,120.32306939963314,65.4472991920781,-6.450741758640596,120.32306939963314,65.4472991920781,-6.450741758640596,120.32306939963314,65.4472991920781,-6.450741758640596,120.32306939963314,65.4472991920781,-6.450741758640596,1.0,0.8547470662995036,646804.734571354,0.0,0.0,887217.0540840001,1.0,0.8518774331441291,1.9051825380958296E7,0.0,0.0,0.0,348.99197923076923,2476.1070972641633,69371.87435455863,263.3854102917598,600062.9240824962,-1.6327198871801787,0.4159950297449119,0.0,13.0,759.7412,85.80322
Finger1,89.08837650776199,256.8207358473049,202.4285301211573,304.6196482207908,394.82304981917446,-22.542766049721763,0.6573379972779385,353.1051752934061,-10.839574364398231,0.17949030912638264,394.82304981917446,-22.542766049721763,0.6573379972779385,353.1051752934061,-10.839574364398231,0.17949030912638264,3.0,4.040342563408714,1.6046440580091548E8,0.0,0.36014717120670664,4175788.408637408,1.0,0.8486230921738119,2.1075595289161097E7,0.0,0.0,0.0,11.688423968749955,7792.507788038953,292692.5550956723,541.0106792806149,2254209.074255161,-1.3449341272386148,0.44914255993486824,2.0,32.0,891.3666,-697.9065
Finger1,84.72477697546528,258.0429072249924,85.04475799654696,270.5256934657655,289.65691010326645,10.249677384371353,-6.685036501497507,289.65691010326645,10.249677384371353,-6.685036501497507,289.65691010326645,10.249677384371353,-6.685036501497507,289.65691010326645,10.249677384371353,-6.685036501497507,1.0,1.1388337847459837,128750.89710436804,0.0,0.35229416951887826,3346001.454504855,1.0,0.823423005022177,1.986074295220672E7,0.0,0.0,0.0,344.16961365714286,2802.5872790514845,62245.413966686276,249.49030836224134,637272.4003529019,-1.8137599278411314,-0.2950484742567947,2.0,14.0,608.9813,-1.2084961
Finger1,123.38146181091076,226.8175821175492,90.42708804566844,271.46633064193657,93.38874311946256,0.17768362367301904,0.0028199545253374536,93.38874311946256,0.17768362367301904,0.0028199545253374536,93.38874311946256,0.17768362367301904,0.0028199545253374536,0.0,0.0,0.0,12.0,17.015973498474434,3.915601363892021E8,0.0,0.33411031518121936,6508017.331184874,0.0,0.0,0.0,0.0,0.0,0.0,-57.398611098360654,14390.850320311543,67096.50804463262,259.02993657998803,2176765.200644648,-0.27522837391272725,0.6548161385535402,5.0,122.0,609.08203,-454.79736
Finger1,188.04929886318578,550.2877571830605,125.59582468247964,602.5152607541463,69.97658227607917,7.839012626243857,-0.04923569099058844,69.97658227607917,7.839012626243857,-0.04923569099058844,69.97658227607917,7.839012626243857,-0.04923569099058844,69.97658227607917,7.839012626243857,-0.04923569099058844,11.0,16.599773816196684,4.695290016534048E9,0.0,0.3558356968514014,1.583056597516494E7,0.0,0.0,0.0,0.0,0.0,0.0,-83.5065693432203,35746.47950044315,480516.8135756211,693.1932007569183,1.4368158265362581E7,-0.7894225898119034,0.09668949934864632,4.0,118.0,1235.1837,-1463.0859
Finger1,55.20231493319528,230.0138592904367,123.86917011821652,238.63491952953925,286.18917956010796,-16.898035069774863,0.3709276354307258,286.18917956010796,-16.898035069774863,0.3709276354307258,286.18917956010796,-16.898035069774863,0.3709276354307258,286.18917956010796,-16.898035069774863,0.3709276354307258,5.0,7.7889492330981245,4.1543481426815647E8,0.0,0.0,0.0,0.0,0.0,0.0,5.0,7.614243615536951,7.3118112919009E7,-80.65616989130432,7056.561806477065,116721.04626785454,341.644619843273,1381132.341735733,-0.62610966502019,0.4548120385196482,2.0,46.0,597.1985,-627.4109
Finger1,91.51913349680065,324.0012707677734,84.98893956106275,350.81002540689315,79.60620956506204,83.04650838644636,-6.556393461551387,79.60620956506204,83.04650838644636,-6.556393461551387,79.60620956506204,83.04650838644636,-6.556393461551387,0.0,0.0,0.0,1.0,0.974326464199641,1207098.300183324,0.0,0.0,0.0,1.0,0.8349251200727861,3.135371056639734E7,1.0,1.7301321028078176,8.721329017043766E7,414.22642249999996,3302.032952862968,86459.5024912913,294.0399675066152,910216.0114079296,-1.7834558911964196,-0.11124065631949755,0.0,14.0,786.026,44.110107
Finger1,213.67572864008127,407.3264432711393,74.86270141400409,443.2101851768472,465.49763325189383,14.829105783201157,-7.98445881592329,465.49763325189383,14.829105783201157,-7.98445881592329,465.49763325189383,14.829105783201157,-7.98445881592329,465.49763325189383,14.829105783201157,-7.98445881592329,2.0,3.5974449202247296,9.618859183077666E7,0.0,0.3336497279201911,1.7863839150356557E7,1.0,0.8397758311286657,5.105583070864448E7,0.0,0.0,0.0,-76.16440908947362,10851.429476938567,378705.75488988135,615.3907335099233,3722178.0094125154,-1.278643236506827,0.11131034239504209,3.0,38.0,927.2186,-968.2068
Finger1,167.26520703096918,358.7905707951565,61.85172716139792,400.6881560375435,0.0,0.0,0.0,155.6522001815788,-0.8656030577897695,0.10841035129850862,155.6522001815788,-0.8656030577897695,0.10841035129850862,0.0,0.0,0.0,0.0,0.0,0.0,0.0,0.35641691130598757,7445307.405977746,1.0,0.84674119007262,4.032334131463642E7,0.0,0.0,0.0,-15.103857618604684,8685.08388615265,209456.28999470064,457.6639487601144,2297672.872118262,-0.8679277439484863,-0.47826228059647513,1.0,43.0,716.7389,-897.50977
Finger1,52.807922129614575,196.73039429206187,93.00104511496849,251.61332967846351,111.91091905390545,44.94856768593439,-4.030522584812012,111.91091905390545,44.94856768593439,-4.030522584812012,111.91091905390545,44.94856768593439,-4.030522584812012,111.91091905390545,44.94856768593439,-4.030522584812012,1.0,1.0561903559215002,419213.31591823197,0.0,0.35158495018557895,3000800.8777380744,1.0,0.8389926124640558,1.2580894353128517E7,0.0,0.0,0.0,246.9648089285714,2356.0745303327785,76472.54303722871,276.5366938350654,462012.7673059522,-1.643539383318698,-0.3314155066924896,1.0,14.0,569.30237,-151.46484
Finger1,78.74670791114767,565.6705911815908,159.94538895614056,571.7260594285787,610.140351591316,-0.7748908996582031,-0.7748908996582031,50.38055026943857,129.7921634083168,-8.530325665419213,50.38055026943857,129.7921634083168,-8.530325665419213,50.38055026943857,129.7921634083168,-8.530325665419213,0.0,0.8166708464338234,1.6664291047436751E7,0.0,0.0,0.0,1.0,0.8365302080734617,8.820027213023083E7,0.0,0.0,0.0,-697.3085437499999,5803.544588693043,173272.41255503346,416.26002997529497,2580293.928621975,-1.4156906712210469,-0.3473572556415389,0.0,16.0,-184.19495,-1395.5109
Finger1,64.54165698329021,369.64130909616364,76.82461061950161,436.24051696582694,168.15174089530478,-1.6663263841599019,0.10877339493064042,168.15174089530478,-1.6663263841599019,0.10877339493064042,168.15174089530478,-1.6663263841599019,0.10877339493064042,168.15174089530478,-1.6663263841599019,0.10877339493064042,7.0,8.857563372634857,3.405812423225794E8,0.0,0.3574582103881726,9053941.086232632,0.0,0.0,0.0,0.0,0.0,0.0,59.71537281111107,9111.839830764806,213937.43371632256,462.533710897187,2402122.667843849,-0.9482266089372109,0.5286126191082995,2.0,45.0,965.5884,-575.44556
Finger1,32.13765945617729,210.63753121962344,89.96702903162473,239.402416506403,217.29845169724106,-55.97281769225327,3.483954526491857,217.29845169724106,-55.97281769225327,3.483954526491857,217.29845169724106,-55.97281769225327,3.483954526491857,217.29845169724106,-55.97281769225327,3.483954526491857,1.0,1.0881679548783627,62846.78629721144,0.0,0.3534611799295727,2509044.924141885,1.0,0.8256111437928609,1.263945237327904E7,0.0,0.0,0.0,-282.0903227142857,2263.4770131087207,54614.50438572095,233.69746337031765,448851.2236849083,-1.431104351465169,0.3514870979217695,1.0,14.0,136.76147,-543.219
Finger1,255.28916362713727,443.831758295319,115.80161545492473,514.4871471590217,351.2430796520284,-6.821349156186557,0.22931252763805965,351.2430796520284,-6.821349156186557,0.22931252763805965,351.2430796520284,-6.821349156186557,0.22931252763805965,351.2430796520284,-6.821349156186557,0.22931252763805965,2.0,3.695902063875661,3.051593195179793E8,0.0,0.35411979542531036,1.263491224414799E7,1.0,0.8404859375566917,6.296237554230685E7,0.0,0.0,0.0,20.862887324324316,12169.214235519668,493229.6172223256,702.3030807438663,4654787.876973816,-1.304953240787962,-0.15710662884610854,2.0,37.0,1066.095,-1151.3947
Finger1,84.35983154481795,276.58053969847094,66.81108804547371,313.77510035477184,132.18863771261272,36.724743791425226,-2.0934976226641027,132.18863771261272,36.724743791425226,-2.0934976226641027,132.18863771261272,36.724743791425226,-2.0934976226641027,132.18863771261272,36.724743791425226,-2.0934976226641027,2.0,1.4730582775293402,28999.208433446765,0.0,0.3614551787277918,3042786.9418895002,0.0,0.0,0.0,0.0,0.0,0.0,-393.19930955999996,4450.534947964593,65167.7250011749,255.27969954772138,1110785.8004283383,-0.9642907279992285,0.3415274529628548,1.0,20.0,44.41223,-828.12195
Finger1,148.99030395255474,384.9401982049913,60.74295487966506,441.8740387292417,0.0,0.0,0.0,323.13331027449317,-7.429012949084509,0.07461965877904042,387.1064837973868,-62.11211549835184,2.824350837550867,323.13331027449317,-7.429012949084509,0.07461965877904042,13.0,17.750995763129705,4.757128950224667E8,0.0,0.0,0.0,0.0,0.0,0.0,10.0,16.874566750604174,1.1266090548106525E9,-53.93778607070706,19722.07358880183,208190.87493504936,456.2793825443457,5250098.733192252,-0.8466908236407398,-0.13836669056474588,8.0,99.0,787.0331,-1014.43176
Finger1,22.356860277500527,224.3715424727359,105.22632429594674,254.8586823880265,105.74063077247865,53.599814874008416,-4.841706270238255,0.0,0.0,0.0,105.74063077247865,53.599814874008416,-4.841706270238255,0.0,0.0,0.0,0.0,0.7902768253580088,596662.0838986124,0.0,0.35448267769954844,2689683.529902698,1.0,0.8412085857793432,1.4814558964166205E7,0.0,0.0,0.0,-326.1356885,2392.5945500817443,41874.65322739115,204.63297199471828,501384.4735466669,-1.5581662189248682,0.1172568300455422,1.0,14.0,13.595581,-606.96716
Finger1,105.52814395276611,309.7566446568309,104.20813946319069,351.7291422408904,130.93277764518575,74.25844933607141,-6.7078633665157525,0.0,0.0,0.0,130.93277764518575,74.25844933607141,-6.7078633665157525,130.93277764518575,74.25844933607141,-6.7078633665157525,2.0,1.6690857914093167,74935.42855739684,0.0,0.0,0.0,1.0,0.8413484838641849,3.0432148182885032E7,1.0,1.6453687183487502,6.278254260063029E7,392.60629599230765,3134.173970675067,107472.6171142416,327.83016504623487,862954.7121776163,-1.6975145832827638,-0.11772120408626195,1.0,13.0,829.22974,-58.914185
Finger1,156.65176374333356,339.23866370141,128.76857946743596,286.56632447547935,235.26103832252193,4.25008069699652,-0.1142271166458082,235.26103832252193,4.25008069699652,-0.1142271166458082,235.26103832252193,4.25008069699652,-0.1142271166458082,235.26103832252193,4.25008069699652,-0.1142271166458082,3.0,3.7265802006188284,1.833623892379243E8,1.0,0.8271476722014407,4.876850810205173E7,0.0,0.0,0.0,0.0,0.0,0.0,-171.01058822916664,12006.428261457502,245485.55332460516,495.46498698152743,3318411.2853954495,-0.9631063338291477,0.618998303688623,1.0,48.0,795.694,-853.19824
Finger1,82.81650814668006,278.01886002132466,69.78916405140828,331.0357517163599,279.66139204222725,-43.27233153641373,0.6549078363331375,46.119628439575365,-0.10284240713071346,6.379998847348971E-5,46.119628439575365,-0.10284240713071346,6.379998847348971E-5,0.0,0.0,0.0,0.0,0.0,0.0,1.0,1.8062712023820875,1.0215750459463808E8,0.0,0.0,0.0,0.0,0.0,0.0,0.0,0.0,0.0,0.0,0.0,0.0,0.0,0.0,0.0,0.0,0.0
Finger1,159.962869971103,326.9720815885546,132.24425901690935,501.6043574411589,446.2072517517681,-14.632424683476188,0.29588935510686376,446.2072517517681,-14.632424683476188,0.29588935510686376,446.2072517517681,-14.632424683476188,0.29588935510686376,446.2072517517681,-14.632424683476188,0.29588935510686376,3.0,3.8512708295361278,3.8085167837788576E8,1.0,0.8351778991023925,1.1340142170574524E8,0.0,0.0,0.0,0.0,0.0,0.0,-44.0304761302326,13544.1614910183,529699.4063101772,727.8045110537425,5654443.565955385,-0.925739999621007,0.444647333665129,2.0,43.0,1344.3512,-1124.8077
Finger1,62.717992387127694,286.5152053263497,131.73840806668719,304.47927897939525,257.5550116872307,-3.657905221160263,0.07079160819573893,257.5550116872307,-3.657905221160263,0.07079160819573893,257.5550116872307,-3.657905221160263,0.07079160819573893,257.5550116872307,-3.657905221160263,0.07079160819573893,3.0,4.4416555586325375,9.675154838745606E7,0.0,0.7963083616011001,1.7728198517231688E7,1.0,0.8424154705755447,2.4591381420315564E7,0.0,0.0,0.0,-80.6527270857143,7806.754963196964,239057.74290245166,488.9353156629736,2090834.1019530024,-1.0289383745346274,0.44900460853876395,2.0,35.0,813.01575,-746.9513
Finger1,183.67272443089894,320.7965179893658,165.98573808770746,338.50556218346526,242.79068493235445,3.9887252849734978,-0.043820229965580326,242.79068493235445,3.9887252849734978,-0.043820229965580326,242.79068493235445,3.9887252849734978,-0.043820229965580326,242.79068493235445,3.9887252849734978,-0.043820229965580326,11.0,16.742293747454184,6.701188905044773E9,0.0,0.0,1210516.9892109009,2.0,3.6881023455088053,5.295057523438942E8,0.0,0.0,0.0,-93.04721882871287,29838.347060857664,427344.76205623394,653.7161173294062,1.0973556896657763E7,-0.8275625948146232,-0.4148321844944515,3.0,101.0,896.6034,-1569.1315
Finger1,461.16426875000957,1051.1511395217726,130.25354821042782,1166.7185082266524,526.6164858472221,-3.9963974279221475,0.1551189577938139,526.6164858472221,-3.9963974279221475,0.1551189577938139,526.6164858472221,-3.9963974279221475,0.1551189577938139,526.6164858472221,-3.9963974279221475,0.1551189577938139,6.0,8.86817478213816,1.0631171088128964E9,0.0,0.35600139796953756,5.655912328050867E7,1.0,0.8475539999670162,3.4415901856141245E8,0.0,0.0,0.0,-375.78953004761894,37994.67962738105,1740182.9849807671,1319.1599542818024,2.9937473628605764E7,-0.8372615914745634,0.17073774570782996,3.0,63.0,2333.8074,-2711.8652
Finger1,470.5642348996183,940.8315487120485,123.17524780325307,1003.8841603735467,49.429038031603284,-0.04907262030735543,1.170453575107112E-5,49.429038031603284,-0.04907262030735543,1.170453575107112E-5,0.0,0.0,0.0,49.429038031603284,-0.04907262030735543,1.170453575107112E-5,0.0,0.0,0.0,0.0,0.0,0.0,0.0,0.0,0.0,0.0,0.0,0.0,0.0,0.0,0.0,0.0,0.0,0.0,0.0,0.0,0.0,0.0,0.0
Finger1,104.65658861460606,421.445035941142,195.40844341842632,465.8734851322465,425.7648180552196,-78.414457403102,2.6310275797455063,425.7648180552196,-78.414457403102,2.6310275797455063,425.7648180552196,-78.414457403102,2.6310275797455063,425.7648180552196,-78.414457403102,2.6310275797455063,3.0,3.898887251412996,1.1952340306240577E8,0.0,0.3566695850180786,9192979.0367135,1.0,0.8325880643695645,5.421698705689786E7,0.0,0.0,0.0,-81.31857454687506,8901.08186489851,379439.15349261515,615.9863257350889,2998950.6214467543,-1.3493160115093767,-0.088863562011509,2.0,32.0,815.0299,-1086.438
Finger2,168.76449486177506,314.4314365508523,78.20145688706752,366.27919086649354,75.54651983680719,155.84437781665383,4.011026254465634,155.84437781665383,4.011026254465634,-0.0159104992563468,75.54651983680719,155.84437781665383,4.011026254465634,155.84437781665383,4.011026254465634,-0.0159104992563468,0.0,0.0,0.0,0.0,0.0,0.0,0.0,0.0,0.0,0.0,0.0,0.0,-9.110689548814156,81914.31515456758,644465.0166433394,802.7857850281976,4.070131748714054E7,0.04874902007210391,-0.43068046173768,16.0,253.0,1674.6735,-2121.414
Finger2,64.72333735601171,307.54106335821814,163.57504812442332,359.42327765569456,363.561797417633,-0.34351073362607565,-6.847963677991675E-4,163.57504593620112,31.066465377807617,31.066463470458984,363.561797417633,-0.34351073362607565,-6.847963677991675E-4,363.561797417633,-0.34351073362607565,-6.847963677991675E-4,22.0,34.463303932278656,2.177075809876407E10,0.0,0.0,1365427.3052250003,0.0,0.0,0.0,0.0,0.0,0.0,-87.28852778579241,59423.84849124393,642623.5226340848,801.6380246932432,2.9578280569073644E7,-0.07185006788811821,0.3865403375503766,11.0,183.0,1851.8188,-1591.1865
Finger2,142.67880166831625,512.7220601137458,120.12969572129069,533.5670337785559,0.0,0.0,0.0,0.0,0.0,0.0,0.0,0.0,0.0,201.41695261816676,2.117305726794541,-0.009230498976086937,0.0,0.0,0.0,0.0,0.0,0.0,0.0,0.0,0.0,0.0,0.0,0.0,4.894630891970795,73690.4700676231,437889.65352035064,661.7323125859509,2.9949873777595308E7,0.7456306052850357,-0.4967805739772505,17.0,274.0,1733.7891,-2063.6077
Finger2,119.6381214071834,368.0295436192778,93.37667752655322,422.4373980962586,180.42682768716145,2.078489477656717,-0.00947424253139495,180.42682768716145,2.078489477656717,-0.00947424253139495,180.42682768716145,2.078489477656717,-0.00947424253139495,180.42682768716145,2.078489477656717,-0.00947424253139495,23.0,36.52262254217598,1.2358351753569143E10,0.0,0.0,2157746.56070754,0.0,0.0,0.0,0.0,0.0,0.0,-2.278030404263548,61537.85827740585,345797.45242736913,588.0454509877354,2.2240085452076014E7,-0.09293305605961555,0.38546750504657645,17.0,258.0,1419.6808,-1222.5952
Finger2,172.25748087233055,668.0329245065038,159.7834542827058,765.1346927317811,515.4809465064536,-7.0114927881603535,0.036143253244057816,515.4809465064536,-7.0114927881603535,0.036143253244057816,515.4809465064536,-7.0114927881603535,0.036143253244057816,515.4809465064536,-7.0114927881603535,0.036143253244057816,20.0,32.385177697634724,8.75577190318042E9,0.0,0.0,7226954.201700251,1.0,0.8372152445042915,1.3352522509474495E8,0.0,0.0,0.0,-37.00932101271686,46701.23605150674,443017.07494683674,665.5952786392319,1.9152645799894102E7,0.37593762078835136,0.35175733025447925,12.0,173.0,1729.2572,-1428.7445
Finger2,127.18621368497152,419.4409973620383,147.88745558892415,458.43587239583735,390.056559641027,-2.4000097913787286,0.008325164921721973,0.0,0.0,0.0,390.056559641027,-2.4000097913787286,0.008325164921721973,390.056559641027,-2.4000097913787286,0.008325164921721973,23.0,34.55723297758981,8.783563053623665E9,0.0,0.0,2608400.488851749,1.0,0.8301767266270056,5.0648565774748616E7,0.0,0.0,0.0,0.0,0.0,0.0,0.0,0.0,0.0,0.0,0.0,0.0,0.0,0.0
Finger2,457.6252986886215,1062.1650264426464,49.875136651463194,1215.6991557004546,104.67147371636383,-2.726660365453597,0.01786629663374739,104.67147371636383,-2.726660365453597,0.01786629663374739,104.67147371636383,-2.726660365453597,0.01786629663374739,104.67147371636383,-2.726660365453597,0.01786629663374739,40.0,62.982195109941244,7.266678545316722E10,0.0,0.35536977034962547,7.68946113392736E7,0.0,0.0,0.0,0.0,0.0,0.0,32.97620103447021,70901.59550154985,618019.6339540605,786.1422479132262,4.7005257983089104E7,2.5446389383329393,0.30026947668368603,19.0,302.0,2557.8826,-2302.89
Finger2,130.29521817749594,283.7947967111793,124.00820928310068,326.443518518084,334.07714370293127,-8.009601593017578,-8.009605407714844,334.07714370293127,-8.009601593017578,-8.009605407714844,334.07714370293127,-8.009601593017578,-8.009605407714844,334.07714370293127,-8.009601593017578,-8.009605407714844,1.0,0.8022190268397963,148632.39195468384,0.0,0.0,0.0,0.0,0.0,0.0,0.0,0.0,0.0,-377.4226252307693,3045.362567345478,92504.50190928411,304.14552751813414,781429.0077057694,-1.1826324222093147,0.46272164916824654,1.0,13.0,206.04858,-755.10864
Finger2,25.01816799137639,237.8088197711583,66.2741822870256,282.650463819159,327.9548571758189,0.6357589964616324,-0.008177178464077228,327.9548571758189,0.6357589964616324,-0.008177178464077228,327.9548571758189,0.6357589964616324,-0.008177178464077228,327.9548571758189,0.6357589964616324,-0.008177178464077228,22.0,33.358219227833104,1.4188986582412449E10,0.0,0.0,795432.3109488145,2.0,2.309673659114369,7979841.760910532,0.0,0.0,0.0,4.071251912509962,59418.25895855286,404335.7958784189,635.8740408905044,2.5268612828258615E7,1.0036622032466758,-0.5004056770524569,10.0,251.0,1680.011,-1926.6449
Finger2,169.81903397241467,451.4543028747042,208.43164734965595,494.133234442757,462.45900803199663,-100.70826676301544,7.96055671294215,462.45900803199663,-100.70826676301544,7.96055671294215,462.45900803199663,-100.70826676301544,7.96055671294215,462.45900803199663,-100.70826676301544,7.96055671294215,24.0,35.53229521192139,3.3090229111096176E10,0.0,0.0,2987892.9501221534,1.0,0.827667825100902,5.958626373684012E7,0.0,0.0,0.0,-73.83401772977008,68518.97380712104,857264.7606517605,925.8859328512128,3.728434019830894E7,-0.4015817413118161,0.4720448127732253,8.0,174.0,2373.0835,-1631.8726
Finger2,84.4124525550754,406.15007633265395,137.10664758709405,447.90863192429373,318.0891631933987,-1.6035731680532876,0.007113386720924375,318.0891631933987,-1.6035731680532876,0.007113386720924375,318.0891631933987,-1.6035731680532876,0.007113386720924375,318.0891631933987,-1.6035731680532876,0.007113386720924375,47.0,68.98896890244146,5.6187137113349106E10,0.0,0.0,2587622.9470531805,0.0,0.0,0.0,0.0,0.0,0.0,-14.769505991791045,73261.57870045482,431259.600201308,656.7035862558602,2.8808315322567068E7,-0.04826565005401218,-0.0872668274844556,13.0,268.0,1627.945,-1773.9716
Finger2,151.4902678743513,346.07561834985876,79.18840670012106,401.51905986275466,230.9683247626267,2.2294762439864684,-0.009727839422713602,230.9683247626267,2.2294762439864684,-0.009727839422713602,230.9683247626267,2.2294762439864684,-0.009727839422713602,230.9683247626267,2.2294762439864684,-0.009727839422713602,21.0,34.62803447364944,2.0460802552866432E10,0.0,0.0,0.0,1.0,1.9730565504312667,2.185354725899429E7,0.0,0.0,0.0,10.905297405241935,76403.73908084437,543592.43504304,737.2872133999341,3.364260093966854E7,0.12042997605113692,-0.6119342324139694,11.0,248.0,1656.9489,-2097.8484
Finger2,308.7142360386082,827.926475935727,52.99507137549765,856.7572351632098,-36.808779612255876,3.3181868420124445,-0.007485269930402411,-36.808779612255876,3.3181868420124445,-0.007485269930402411,-36.808779612255876,3.3181868420124445,-0.007485269930402411,-36.808779612255876,3.3181868420124445,-0.007485269930402411,46.0,70.0905835223038,5.026932094034453E10,0.0,0.0,0.0,0.0,0.0,0.0,0.0,0.0,0.0,35.583494396011396,83463.85294702626,515335.7998182697,717.868929414186,4.540922845531981E7,3.3034921208661574,0.4619592852360203,19.0,351.0,2652.7495,-2103.9917
Finger2,264.3267578035369,513.3352615193655,215.14557114120004,574.0992568710815,554.742775154979,-1.396435715487101,1.0820237789976872E-5,554.742775154979,-1.396435715487101,1.0820237789976872E-5,554.742775154979,-1.396435715487101,1.0820237789976872E-5,554.742775154979,-1.396435715487101,1.0820237789976872E-5,24.0,36.58192201779683,1.069507082650509E10,0.0,0.0,2928654.4760934403,1.0,0.8558420813249944,8.358579476386616E7,0.0,0.0,0.0,10.86999140919678,95069.94872576237,816633.186692192,903.6775900132701,5.086244265778562E7,-0.480420697108479,0.18620112567617292,18.0,249.0,2263.3118,-1794.7174
Finger2,177.34623507818455,483.6732367317934,335.6075516464995,559.7898088044061,566.7966811760363,-12.492130279541016,-12.492134094238281,566.7966811760363,-12.492130279541016,-12.492134094238281,566.7966811760363,-12.492130279541016,-12.492134094238281,566.7966811760363,-12.492130279541016,-12.492134094238281,25.0,36.07931748305087,5.365235878408485E10,0.0,0.0,3907728.35600625,1.0,0.8356668966803177,6.765329082599603E7,0.0,0.0,0.0,-26.406624769230795,80875.49161709243,1580957.5983739085,1257.3613634806457,5.602320355254043E7,-1.118290028519055,0.01558116362892831,8.0,143.0,2425.8545,-2391.0095
Finger2,124.28952900609075,338.61709799374717,64.9447696934462,399.20645360791815,49.729696134851565,91.57178781467019,-6.528264183798434,49.729696134851565,91.57178781467019,-6.528264183798434,49.729696134851565,91.57178781467019,-6.528264183798434,49.729696134851565,91.57178781467019,-6.528264183798434,1.0,1.144222787496689,2328179.623811531,0.0,0.0,2093147.0208911377,0.0,0.0,0.0,0.0,0.0,0.0,435.5554196,3734.7950165050615,108599.17309909944,329.54388645383705,1121508.7596821832,-1.7619165647267843,0.003667830903766675,0.0,15.0,870.82214,25.579834
Finger2,43.17971375115741,300.6150469406056,226.83056960645243,372.2296204257543,550.5009141518422,-3.810060358997845,0.013885389052598618,550.5009141518422,-3.810060358997845,0.013885389052598618,550.5009141518422,-3.810060358997845,0.013885389052598618,550.5009141518422,-3.810060358997845,0.013885389052598618,21.0,32.943898548151516,2.5575100645511345E10,0.0,0.35787218136187526,6177083.1569561595,0.0,0.0,0.0,0.0,0.0,0.0,-77.46170647872928,64793.33840148851,708353.8421652028,841.6375955036722,3.207260895098822E7,-0.6795859109927753,-0.04095998906148496,12.0,181.0,1612.8387,-1985.4584
Finger2,87.99272018695278,441.5083733086471,200.1295611325428,518.2284813605786,451.3058771011822,-105.21796895651175,6.054224313865149,451.3058771011822,-105.21796895651175,6.054224313865149,451.3058771011822,-105.21796895651175,6.054224313865149,451.3058771011822,-105.21796895651175,6.054224313865149,22.0,32.53660441574599,2.182585352719341E10,0.0,0.0,3327796.303357523,1.0,0.8378990878054464,5.826621970507148E7,0.0,0.0,0.0,-38.32581455686292,53110.96152924567,441730.0450467197,664.6277492301384,2.242748582755072E7,-0.1213423304317911,-0.08240690938846,10.0,204.0,1768.3319,-1465.4022
Finger2,239.30618475310865,527.6848554525254,113.5300975635222,572.0848718202403,337.4411583041515,-1.917808437467059,0.00785018356625744,337.4411583041515,-1.917808437467059,0.00785018356625744,337.4411583041515,-1.917808437467059,0.00785018356625744,337.4411583041515,-1.917808437467059,0.00785018356625744,22.0,32.85173678197081,2.6762312843501472E10,0.0,0.3581281269722707,1.4224532040498324E7,1.0,0.8325653641606814,8.276610968444891E7,0.0,0.0,0.0,38.079227899078326,54832.972345385264,366762.3989515397,605.6091139931265,1.9976906964569334E7,0.12299609023356073,-0.4384858367521975,10.0,217.0,1311.6211,-1591.2872
Finger2,124.92274572016547,327.64877226210643,49.06785281448373,379.86730520683705,230.75355932109824,1.5901143697976323,-0.006910204326731562,230.75355932109824,1.5901143697976323,-0.006910204326731562,230.75355932109824,1.5901143697976323,-0.006910204326731562,230.75355932109824,1.5901143697976323,-0.006910204326731562,49.0,69.41355293443156,4.1917667910020096E10,1.0,0.9328262646388047,6.08219617712227E7,0.0,0.0,0.0,0.0,0.0,0.0,-3.1460075315699556,77989.7848602527,482585.7357174628,694.6839106510693,3.52910201896409E7,0.6422398742830797,-0.22222066994703282,23.0,293.0,1886.3617,-1960.2814
Finger2,212.87624900972114,585.7152675897278,126.23267687304066,631.089493494912,323.2220720685614,0.340641618973919,-0.006821068638158567,323.2220720685614,0.340641618973919,-0.006821068638158567,323.2220720685614,0.340641618973919,-0.006821068638158567,323.2220720685614,0.340641618973919,-0.006821068638158567,22.0,34.37557274669311,1.4712562917648367E10,0.0,0.3555550633861273,1.7656399741586782E7,1.0,0.8412805761474245,1.0202507207145111E8,0.0,0.0,0.0,-68.2814270059028,43332.581018572324,510927.83709566324,714.7921635662099,1.8520081735989675E7,-0.6229685591084486,0.12298534191776045,10.0,144.0,1469.1284,-1458.5541
Finger2,282.5982395344466,544.4010689259511,106.78865638776703,577.7121187799072,239.75312474883276,0.5850640493896151,0.0060818876515637,239.75312474883276,0.5850640493896151,0.0060818876515637,239.75312474883276,0.5850640493896151,0.0060818876515637,239.75312474883276,0.5850640493896151,0.0060818876515637,22.0,33.29063969861437,1.292794122588046E10,0.0,0.3527814351064483,1.4850988514543965E7,1.0,0.8306917866486584,8.902288858182943E7,0.0,0.0,0.0,23.75962956111112,55009.28937549335,642750.7809989976,801.7173947214801,2.603633480090761E7,-0.5462838467014035,0.18168504251715753,15.0,162.0,1894.519,-1412.2284
Finger2,83.92567789507753,346.1132532614534,157.02693609210147,399.20358567469424,440.5339691306999,-2.1888132391350155,-0.38490493587991637,440.5339691306999,-2.1888132391350155,-0.38490493587991637,440.5339691306999,-2.1888132391350155,-0.38490493587991637,440.5339691306999,-2.1888132391350155,-0.38490493587991637,23.0,33.41817369946061,2.4880041501591473E10,1.0,1.771107735506076,2.5763350762459517E8,1.0,0.8281974233406484,3.4481780769383244E7,0.0,0.0,0.0,-3.6327280928104417,54599.42647330186,721830.8610788457,849.6062976925523,2.7411796800139252E7,-0.8838532127056795,-0.305826447343315,10.0,153.0,1399.5392,-1720.2942
Finger2,414.0743534982452,1056.9613670599213,146.076899647767,1173.263578400212,168.5798675464057,-0.23427707457709346,0.006424857590538402,168.5798675464057,-0.23427707457709346,0.006424857590538402,168.5798675464057,-0.23427707457709346,0.006424857590538402,168.5798675464057,-0.23427707457709346,0.006424857590538402,23.0,34.532705618548185,1.5173881759729967E10,0.0,0.3551797554289007,6.012952786439769E7,1.0,0.8361500386029121,3.415548508888102E8,0.0,0.0,0.0,75.70702923948716,60325.773669577764,529366.6218611309,727.5758529948138,3.148176742192247E7,3.1295757437509497,0.3360730589486777,24.0,234.0,2679.4373,-2221.115
Finger2,254.29564261861154,883.9006925839249,79.6132054698699,961.5366449253565,221.930548257591,3.071681995418089,1.691040723421633E-4,221.930548257591,3.071681995418089,1.691040723421633E-4,221.930548257591,3.071681995418089,1.691040723421633E-4,221.930548257591,3.071681995418089,1.691040723421633E-4,11.0,16.812237837808823,1.0150479342703642E10,0.0,0.3574883413387387,4.138127640639113E7,1.0,0.8320450725655227,2.3961935660722733E8,0.0,0.0,0.0,-50.9937951544118,58520.82652622023,1001935.8365089836,1000.967450274475,3.4167728229754195E7,-0.5558784200464926,-0.10694735795490715,8.0,136.0,2163.6108,-2194.3267
Finger2,154.6446777643498,378.46007087675827,135.95983824017554,452.55973081141286,146.72887836449354,88.66895307805589,-7.348136402619275,146.72887836449354,88.66895307805589,-7.348136402619275,146.72887836449354,88.66895307805589,-7.348136402619275,146.72887836449354,88.66895307805589,-7.348136402619275,2.0,1.6905287771805328,260523.8854585727,0.0,0.0,2597352.0627150624,0.0,0.0,0.0,0.0,0.0,0.0,410.8455114285715,4104.9553149281,241984.01354436006,491.9187062354511,1398239.279176083,-1.7579369239781693,-0.19101301513850602,1.0,14.0,976.66626,-272.818
Finger2,84.71712395751901,284.7889147324068,54.02277357883213,299.6124029157257,311.9818771149288,-0.7911434173583984,-0.7911434173583984,0.0,0.0,0.0,311.9818771149288,-0.7911434173583984,-0.7911434173583984,311.9818771149288,-0.7911434173583984,-0.7911434173583984,11.0,17.00655389518431,7.06273058307857E9,0.0,0.0,890445.1825740408,1.0,0.8361312253816261,2.3001101925593253E7,0.0,0.0,0.0,84.39074876525407,36714.81980092119,534912.6327295587,731.377216441392,1.5876010098435193E7,-0.6380598718991979,-0.3886965191703701,7.0,118.0,1338.0066,-1533.6823
Finger2,158.23101855540608,373.861919244951,105.65026570048808,418.91038707661585,432.867198781762,4.568007668568498,-9.042352032781764,432.867198781762,4.568007668568498,-9.042352032781764,0.0,0.0,0.0,0.0,0.0,0.0,0.0,0.0,0.0,0.0,0.35342994699582114,8856832.143948179,1.0,0.8270503698480555,4.3503668396397725E7,0.0,0.0,0.0,0.0,0.0,0.0,0.0,0.0,0.0,0.0,0.0,0.0,0.0,0.0
Finger2,306.9405309344364,766.5960255978418,208.32598064567551,849.8463520047203,459.71796903132054,0.4056445952564971,-0.008612926423291811,459.71796903132054,0.4056445952564971,-0.008612926423291811,459.71796903132054,0.4056445952564971,-0.008612926423291811,459.71796903132054,0.4056445952564971,-0.008612926423291811,26.0,35.729654091056524,2.1936459988812256E10,0.0,0.0,1.010763755685121E7,0.0,0.0,0.0,0.0,0.0,0.0,54.58881928949582,82392.4635340208,819380.7965234178,905.1965513209923,4.889999038160557E7,0.3528762963086942,-0.5547720964605961,8.0,238.0,2061.392,-2275.5981
Finger2,98.48203660864357,325.2762880307731,129.3049446752533,365.7670036515097,335.1842085285306,-88.16577317101383,7.662431412109697,391.1853336740337,-0.20555639287968575,-0.004932550708520722,391.1853336740337,-0.20555639287968575,-0.004932550708520722,391.1853336740337,-0.20555639287968575,-0.004932550708520722,21.0,33.175150366872515,1.3851301236570635E10,0.0,0.3339744067957699,1.1865368592625374E7,1.0,0.8279926500484619,3.050527709614206E7,0.0,0.0,0.0,7.560354927542402,65145.25788630731,467273.24921961676,683.5738798547065,2.745676361001876E7,0.0764845635272473,0.2620629183075733,12.0,236.0,1956.7566,-1595.8191
Finger2,442.9021800093165,707.7834692123828,158.860301396567,810.138831292365,292.1739752732101,-2.8363165525384204,0.03071853942829661,292.1739752732101,-2.8363165525384204,0.03071853942829661,292.1739752732101,-2.8363165525384204,0.03071853942829661,292.1739752732101,-2.8363165525384204,0.03071853942829661,21.0,33.09891811484906,2.8127291699579514E10,0.0,0.3548200621385307,3.0202962620029338E7,0.0,0.0,0.0,0.0,0.0,0.0,-40.495740241104286,54113.96543706912,626734.3664464703,791.6655647724424,2.6106849889096174E7,0.3352710056104464,0.21735686314233627,11.0,163.0,2135.3118,-1852.3224
Finger2,114.2749659152879,340.079766926107,175.90721088434697,389.1311840594238,408.2393592700914,-3.0465613695115223,0.01184135579082013,408.2393592700914,-3.0465613695115223,0.01184135579082013,408.2393592700914,-3.0465613695115223,0.01184135579082013,408.2393592700914,-3.0465613695115223,0.01184135579082013,0.0,0.0,0.0,0.0,0.35831269077794964,6624073.085080963,1.0,0.8582431023441387,3.436286006747711E7,0.0,0.0,0.0,-53.7230011510417,50239.59011788437,406669.1424209891,637.7061568002846,1.9591534982122194E7,-0.06313860784853675,-0.013127959254662558,11.0,192.0,1628.4485,-1349.7894
Finger2,351.5061792996604,908.7850437706917,162.34262425380982,998.0076067183794,277.4711043505108,-1.441759960722024,0.011012857764017614,277.4711043505108,-1.441759960722024,0.011012857764017614,277.4711043505108,-1.441759960722024,0.011012857764017614,277.4711043505108,-1.441759960722024,0.011012857764017614,0.0,0.0,0.0,0.0,0.0,1.3477780661374092E7,0.0,0.0,0.0,0.0,0.0,0.0,-24.636252228915648,80906.65749611148,657401.9880256896,810.8032979864411,4.126395630733895E7,-0.02866725707938267,-0.2181519985215597,11.0,249.0,1804.0833,-2127.356
Finger2,175.8180084304942,393.1745220147212,163.8387797281243,421.3910092294919,431.70698608452295,-4.454303741455078,-4.454307556152344,431.70698608452295,-4.454303741455078,-4.454307556152344,431.70698608452295,-4.454303741455078,-4.454307556152344,431.70698608452295,-4.454303741455078,-4.454307556152344,10.0,16.643609357572252,1.0168307295721231E10,0.0,0.0,2338300.915237152,1.0,0.8311323065831909,4.630564893017248E7,0.0,0.0,0.0,-173.855589702564,35451.88387131845,540200.1680801539,734.9831073433959,1.659000982830777E7,0.4282050943929576,0.47207689756875143,10.0,117.0,2010.1318,-1486.4502
Finger2,162.62262794746118,449.4295963061528,213.1412507163155,517.5049056585516,551.9842077162189,-3.3009906812624763,0.0098662448258523,551.9842077162189,-3.3009906812624763,0.0098662448258523,551.9842077162189,-3.3009906812624763,0.0098662448258523,551.9842077162189,-3.3009906812624763,0.0098662448258523,0.0,0.0,0.0,0.0,0.0,0.0,0.0,0.0,0.0,0.0,0.0,0.0,-115.14007134863385,66031.85883785537,761866.716356294,872.8497673461877,3.5321818907566264E7,-0.1708603975201437,0.31773885808475805,11.0,183.0,2110.6384,-1868.5364
Finger2,247.9603219445848,698.8652120711909,115.72341048231254,784.0433468382682,283.939998979401,7.822768705106654,-0.053006687825091436,283.939998979401,7.822768705106654,-0.053006687825091436,283.939998979401,7.822768705106654,-0.053006687825091436,283.939998979401,7.822768705106654,-0.053006687825091436,11.0,16.164795964702876,4.672548531561893E9,0.0,0.0,7493053.816742488,1.0,0.8409911762014144,1.4756862937918234E8,0.0,0.0,0.0,-79.42779912313438,65718.16082364864,1243805.53927844,1115.2603011308347,4.179486649092571E7,-0.7083391436189928,-0.031113900127645294,5.0,134.0,2333.8074,-2395.0378
Finger2,160.2078015273219,445.68668524011997,181.35488271291993,485.19750279865815,493.3663136586019,-7.044536590576172,-7.044536590576172,384.63589678197513,-1.1608806346773122,0.002567096703244509,454.67382508415426,-75.73968236404335,2.9644120761957993,384.63589678197513,-1.1608806346773122,0.002567096703244509,10.0,15.56730242792344,7.3423449093509655E9,0.0,0.0,3263807.064804941,0.0,0.0,0.0,0.0,0.0,0.0,-148.07761567886183,40173.10357547499,632830.5665540274,795.5064842941429,1.999326952136568E7,0.3874710875952978,-0.31782744125137535,7.0,123.0,1734.8969,-2275.3967
Finger2,75.22208964491558,370.48669897153684,75.37542136742488,421.1047503413751,442.77400039889653,-1.2625817082115418,2.439347588146512E-4,442.77400039889653,-1.2625817082115418,2.439347588146512E-4,442.77400039889653,-1.2625817082115418,2.439347588146512E-4,442.77400039889653,-1.2625817082115418,2.439347588146512E-4,23.0,34.21719682094856,1.4533258667492151E10,0.0,0.0,2178804.077489108,0.0,0.0,0.0,0.0,0.0,0.0,6.931783261440708,70545.27013518442,485575.5579933846,696.8325178932055,2.854175565904119E7,-0.7936139315516924,0.11236863033113159,13.0,236.0,1624.7223,-1209.201
Finger2,380.7862884492342,1096.1314970663434,79.43368493580347,1158.86045231305,116.3359251194388,2.448609678829655,0.003372584059197048,116.3359251194388,2.448609678829655,0.003372584059197048,116.3359251194388,2.448609678829655,0.003372584059197048,116.3359251194388,2.448609678829655,0.003372584059197048,0.0,0.0,0.0,0.0,0.35472115920323466,6.245761700688864E7,1.0,0.8313605513645479,3.6918438557870173E8,0.0,0.0,0.0,88.69829781318681,68225.71806962769,954586.9569560043,977.029660223273,4.407646915246981E7,0.563595181844994,0.002690346408545058,8.0,182.0,2606.021,-2512.7654
Finger2,222.24605443079497,692.8774651521588,174.8492024674906,746.8482814750356,573.5227064524984,-3.3072958372356425,0.015651019956612666,573.5227064524984,-3.3072958372356425,0.015651019956612666,573.5227064524984,-3.3072958372356425,0.015651019956612666,573.5227064524984,-3.3072958372356425,0.015651019956612666,22.0,33.4371057415078,3.4860452655380646E10,0.0,0.35626684294228805,2.382122027294808E7,1.0,0.8336715888418019,1.4917325935588628E8,0.0,0.0,0.0,-71.70743874033153,80611.35953461919,1061897.1291045325,1030.483929571215,4.8212685060843594E7,-0.6499060772041192,0.023853550691096598,9.0,181.0,2252.7373,-2478.9275
Finger2,124.02081400793622,402.70383572037224,66.99412098700002,437.62710237282784,207.28141910882732,6.345393793225384,-0.0489978180290509,207.28141910882732,6.345393793225384,-0.0489978180290509,0.0,0.0,0.0,207.28141910882732,6.345393793225384,-0.0489978180290509,0.0,0.0,0.0,0.0,0.3562126203523987,7980328.841943418,1.0,0.8431823762328841,4.9045950761638805E7,0.0,0.0,0.0,-78.72611856410266,41487.66431769384,682435.0317631781,826.0962605914507,2.003423437442559E7,-0.2784519886746817,-0.4522780322147517,5.0,117.0,1654.7333,-2140.0452
Finger2,216.52687040716498,512.4724953770135,126.87068765910745,567.4575135274285,590.9697099629811,-9.260845184326172,-9.260848999023438,590.9697099629811,-9.260845184326172,-9.260848999023438,590.9697099629811,-9.260845184326172,-9.260848999023438,590.9697099629811,-9.260845184326172,-9.260848999023438,23.0,35.27326340083427,5.809439698882757E10,0.0,0.0,0.0,1.0,0.8331456855529102,7.374126468041505E7,0.0,0.0,0.0,-7.712998609649117,74106.3233998176,771784.1324583639,878.512454355864,4.383711570762536E7,0.75502707775791,-0.39585706667356463,9.0,228.0,2203.9946,-2482.8552
Finger2,137.8729468176204,458.2616992987522,113.08426309497447,489.9984621021628,403.6941688808897,2.952658364274484,-0.022436823470127598,403.6941688808897,2.952658364274484,-0.022436823470127598,403.6941688808897,2.952658364274484,-0.022436823470127598,403.6941688808897,2.952658364274484,-0.022436823470127598,26.0,35.5828471044012,2.660568819888531E10,0.0,0.0,0.0,0.0,0.0,0.0,25.0,35.6447214370968,3.197401005742694E10,9.373806867860486,80909.39726153202,901981.5976021941,949.7271174406857,4.8297251752601445E7,0.10827112344277534,-0.2858832859056495,10.0,215.0,2308.2275,-2524.347
Finger2,162.7370717275347,446.5843211633086,70.23861221206538,498.00334867280156,517.0510441862787,517.0510441862787,9.94015681941346,517.0510441862787,9.94015681941346,-10.929318024213444,517.0510441862787,9.94015681941346,-10.929318024213444,517.0510441862787,517.0510441862787,9.94015681941346,22.0,33.5801198144899,5.7740123314836174E10,0.0,0.3557049035156586,1.165724762220278E7,0.0,0.0,0.0,0.0,0.0,0.0,-31.296982177173884,75629.0293374681,720572.8789690388,848.8656424717865,4.140385857394382E7,0.014036586707370624,-0.3785432986556294,13.0,230.0,1772.6624,-2357.2722
Finger2,230.37872474237471,645.6345076477216,113.35683018807387,760.1935764006803,325.71480144023417,-17.063261804506794,0.30561023354935424,325.71480144023417,-17.063261804506794,0.30561023354935424,325.71480144023417,-17.063261804506794,0.30561023354935424,325.71480144023417,-17.063261804506794,0.30561023354935424,6.0,7.7897448747614435,5.1296274046203864E8,0.0,0.3545738006736593,2.875021814706986E7,0.0,0.0,0.0,0.0,0.0,0.0,321.3399376849315,17753.540351589683,294483.46129400574,542.6633038026487,7416516.01024914,-0.3592527199529578,0.8642356239953906,2.0,73.0,1667.7246,-263.75427
Finger2,54.28210184025751,354.1530558044928,147.23342352271757,384.85999353647117,0.0,0.0,0.0,425.9172671483609,-9.03848425062641,0.06631129483007925,0.0,0.0,0.0,0.0,0.0,0.0,0.0,0.0,0.0,0.0,0.0,0.0,1.0,0.834920307123034,3.741853954237537E7,0.0,0.0,0.0,-105.7759291005209,19980.737154301096,260132.22863037456,510.03159571773057,6433204.879044299,0.014724562604064406,-0.4228588846464834,8.0,96.0,847.6593,-1315.9515
Finger2,488.3577923854207,1298.7111136490703,71.40894532788836,1369.410696414733,336.94067125675883,-0.07846771323011126,0.01746591468364489,336.94067125675883,-0.07846771323011126,0.01746591468364489,336.94067125675883,-0.07846771323011126,0.01746591468364489,336.94067125675883,-0.07846771323011126,0.01746591468364489,23.0,34.475412973940344,1.6399675489659143E10,0.0,0.35685092204445507,8.425652705119935E7,1.0,0.8313848838420291,4.9588783112419873E8,0.0,0.0,0.0,70.79772509883725,86166.79369504456,1398404.5892741426,1182.5415803573853,6.0427200010238394E7,-0.35996918619074814,0.2562874691972032,11.0,172.0,3155.9875,-2328.6711
Finger2,67.2845552707805,414.5334821372832,75.03883940805,380.8004013973633,418.88187612413356,-83.03918966445792,2.3955029337718656,418.88187612413356,-83.03918966445792,2.3955029337718656,418.88187612413356,-83.03918966445792,2.3955029337718656,418.88187612413356,-83.03918966445792,2.3955029337718656,11.0,17.77893416017461,1.8202418945383957E10,1.0,0.9310307144184861,6.996196258486906E7,1.0,0.8413197603281231,5.195918388641084E7,0.0,0.0,0.0,-1.2799715806450445,57462.88799135403,1196882.3439903264,1094.0211807777428,3.682007818096188E7,-0.7224541410720287,0.1931467676364586,5.0,124.0,2495.645,-2001.9745
Finger2,134.08470673370348,362.5398449970454,59.284243905958675,418.817700793118,363.53363644821934,-59.850117706736,2.7805654562027087,174.6403624237132,17.488187659923597,-0.42296238620798476,174.6403624237132,17.488187659923597,-0.42296238620798476,174.6403624237132,17.488187659923597,-0.42296238620798476,2.0,3.745543157195518,1.554294250407801E8,0.0,0.3336456022021756,1.5615782074072741E7,0.0,0.0,0.0,0.0,0.0,0.0,-12.95001697512829,11725.39956898491,427115.27973276266,653.5405723692774,4127568.2706832928,-1.4188747117011535,0.12997078726601435,2.0,39.0,1021.88416,-937.088
Finger2,566.7949074276263,1263.065137811576,163.49876173645262,1457.0558582598437,1471.0437071360107,-35.88984680175781,-35.889862060546875,1471.0437071360107,-35.88984680175781,-35.889862060546875,1471.0437071360107,-35.88984680175781,-35.889862060546875,1471.0437071360107,-35.88984680175781,-35.889862060546875,10.0,17.020009842721606,9.548067884878191E9,0.0,0.0,2.7292556106292836E7,1.0,0.8423512771461605,5.004939724955151E8,0.0,0.0,0.0,-75.43644667175573,69438.15885130272,1587472.0066089043,1259.9492079480444,5.295427381508759E7,0.03907322389996182,-0.05508097750623191,7.0,131.0,2906.2317,-3215.7073
Finger2,273.8107461170668,643.6290384123294,57.696789537213945,729.8631890233563,-17.88581724245887,10.274147351123844,-0.04605368362620288,-17.88581724245887,10.274147351123844,-0.04605368362620288,-17.88581724245887,10.274147351123844,-0.04605368362620288,-17.88581724245887,10.274147351123844,-0.04605368362620288,22.0,34.15469401033819,7.786050981377133E10,0.0,0.3584575930035786,2.1200169500503737E7,0.0,0.0,0.0,0.0,0.0,0.0,-30.28808417575756,67724.05858779745,951598.6838836635,975.4991972747407,3.932674496085314E7,-0.44784135220025867,-0.5322370365937489,10.0,165.0,1582.8278,-2443.6797
Finger2,124.35157568635351,428.4037238771055,85.34020647575133,450.81445276364366,245.9344856860298,-1.6854357353147122,0.018654867084152205,0.0,0.0,0.0,245.9344856860298,-1.6854357353147122,0.018654867084152205,0.0,0.0,0.0,0.0,0.0,0.0,0.0,0.0,0.0,0.0,0.0,0.0,0.0,0.0,0.0,0.0,0.0,0.0,0.0,0.0,0.0,0.0,0.0,0.0,0.0,0.0
Finger2,124.20688069105982,411.0269640910785,266.33599903652726,453.98623184576326,484.85310066406714,11.802623753036642,-12.410937452671078,484.85310066406714,11.802623753036642,-12.410937452671078,484.85310066406714,11.802623753036642,-12.410937452671078,484.85310066406714,11.802623753036642,-12.410937452671078,0.0,0.0,0.0,0.0,0.35448211757960163,8532585.845848477,1.0,0.8450810591847171,5.303180901313965E7,26.0,35.28804664619813,1.8882562438507637E10,-77.09098892156867,54627.783514632945,865960.5161223941,930.5699952837476,3.3075433025569998E7,0.41517739243453766,-0.8126404019005142,7.0,153.0,1812.2406,-2558.9905
Finger2,132.7808853708088,326.86131641886755,139.50798864428785,384.4956249915173,142.19310900323808,3.5700378080756394,-0.01341420752899311,142.19310900323808,3.5700378080756394,-0.01341420752899311,142.19310900323808,3.5700378080756394,-0.01341420752899311,142.19310900323808,3.5700378080756394,-0.01341420752899311,46.0,66.65049748110319,5.8713808419688034E10,0.0,0.0,0.0,1.0,0.8582756436636303,3.405562919026852E7,0.0,0.0,0.0,-9.141327233333346,81534.67202320452,497860.73365640384,705.5924699544375,3.465470819584663E7,0.013317898877047263,0.6236970425412132,17.0,279.0,1952.7283,-1438.6139
Finger2,129.02936659508225,564.4428855296228,157.89946090667718,453.2777802757353,267.17119503206004,5.2174994629685045,-0.03300594320149686,267.17119503206004,5.2174994629685045,-0.03300594320149686,267.17119503206004,5.2174994629685045,-0.03300594320149686,267.17119503206004,5.2174994629685045,-0.03300594320149686,14.0,17.747845744475253,5.636289585304926E9,1.0,1.7944751147225322,6.052708312117136E8,1.0,0.83181357799787,9.472565158664176E7,0.0,0.0,0.0,-251.0759712216667,50539.04896023915,838535.2886241619,915.7157247880817,2.687006705678637E7,-0.8253722277593414,0.30833457371209605,8.0,120.0,1566.4124,-1844.2657
Finger2,319.8715189782721,634.5043023817249,168.72449683739515,614.741054969187,654.7222802864517,59.81415933968492,-11.775039031798997,654.7222802864517,59.81415933968492,-11.775039031798997,0.0,0.0,0.0,654.7222802864517,59.81415933968492,-11.775039031798997,11.0,16.944765087682548,7.312622021260178E9,0.0,0.0,0.0,0.0,0.0,0.0,0.0,0.0,0.0,29.87383018095243,63513.82387332792,1844736.3702815785,1358.2107238133478,4.812215341730223E7,-1.0773373435987088,-0.15169743341186664,5.0,105.0,2474.8992,-2632.0037
Finger2,116.7180321929025,395.7592112748354,66.30564773299152,476.7459767046189,397.07706150420427,-72.44309087193369,3.2117907147614346,0.0,0.0,0.0,397.07706150420427,-72.44309087193369,3.2117907147614346,397.07706150420427,-72.44309087193369,3.2117907147614346,0.0,0.0,0.0,0.0,0.0,0.0,1.0,0.8406201598437458,5.0114471029301696E7,25.0,35.66513236522669,2.361827489471821E10,-52.124473824691314,58092.18837016945,671508.2660949309,819.4560794178849,2.7187950659314327E7,-0.43870044602241,-0.48193288920602656,10.0,162.0,1568.3258,-2075.592
Finger2,176.35012050840103,492.2298455011962,60.43020593247815,538.0686191929619,507.6624430857719,-124.2976359499387,10.888600732483383,0.0,0.0,0.0,507.6624430857719,-124.2976359499387,10.888600732483383,507.6624430857719,-124.2976359499387,10.888600732483383,21.0,32.217923236182216,1.669325070350362E10,0.0,0.3547291250937351,1.3004226250478264E7,1.0,0.8339779845752597,7.193803632255208E7,0.0,0.0,0.0,33.137431340178594,69495.55606158556,586705.7768560009,765.9672165673938,3.2821973358743917E7,0.007396340910008625,-0.6759454293105541,11.0,224.0,1416.6595,-2119.5007
Finger2,206.633385170364,380.17012971968404,69.13891784178949,434.29026554800055,136.1532328284211,2.7637558336858916,-0.008836446508635798,136.1532328284211,2.7637558336858916,-0.008836446508635798,136.1532328284211,2.7637558336858916,-0.008836446508635798,136.1532328284211,2.7637558336858916,-0.008836446508635798,21.0,32.777049875351715,1.6216766675207863E10,0.0,0.33417551137379725,1.693571921574641E7,1.0,0.8448860898390487,4.5812686440974295E7,0.0,0.0,0.0,-16.92658280189573,62486.07933016739,473995.9610171319,688.473645840661,2.505706887025383E7,-0.11424039536288655,-0.24612770119049232,10.0,211.0,1496.521,-1982.7393
Finger2,193.5199404423013,465.86259065605617,97.09658525319493,497.01546520388337,229.57092272558566,6.294401916485015,-0.036135559672703654,229.57092272558566,6.294401916485015,-0.036135559672703654,229.57092272558566,6.294401916485015,-0.036135559672703654,229.57092272558566,6.294401916485015,-0.036135559672703654,23.0,34.3221732372884,3.338013817272267E10,0.0,0.0,0.0,0.0,0.0,0.0,0.0,0.0,0.0,-45.05382141573038,72658.86017415307,927966.0206511418,963.3099296961191,4.1284822909495965E7,-0.24458383135878137,0.5607567164845623,9.0,178.0,2563.2202,-1686.6577
Finger2,161.66075668129923,356.0189711766188,349.3323040494965,390.6485580238988,897.8023433728547,-18.79702895527619,0.10578135480995893,897.8023433728547,-18.79702895527619,0.10578135480995893,897.8023433728547,-18.79702895527619,0.10578135480995893,897.8023433728547,-18.79702895527619,0.10578135480995893,21.0,32.134096275856194,2.7044316913093487E10,0.0,0.0,1943517.4866729216,1.0,0.8210415902798117,3.677095457290539E7,0.0,0.0,0.0,-137.39997437483,41131.339269199125,793805.9332124777,890.9578739830956,2.9422019091685858E7,4.8296705238825774,-2.090087455322598,10.0,147.0,1024.9054,-3299.8992
Finger2,132.22764078215147,473.7097696399756,135.2654435042183,523.7324160538687,258.9450965391188,4.0227125931282615,-0.02249242815734631,258.9450965391188,4.0227125931282615,-0.02249242815734631,258.9450965391188,4.0227125931282615,-0.02249242815734631,258.9450965391188,4.0227125931282615,-0.02249242815734631,22.0,34.692482211748214,1.3260054256654768E10,0.0,0.0,0.0,1.0,0.8431456196944362,6.87600632223408E7,0.0,0.0,0.0,-35.27424008312503,62177.761004939945,818244.6959772023,904.5687900746975,3.2622338468503505E7,-0.5631531904538885,0.13235034667460963,9.0,160.0,1912.3444,-2055.1482
Finger2,186.45582772461364,588.5330304481874,133.57091703023545,637.7818066707077,452.28912026402895,-3.8131089060756835,0.03252565684863007,452.28912026402895,-3.8131089060756835,0.03252565684863007,452.28912026402895,-3.8131089060756835,0.03252565684863007,452.28912026402895,-3.8131089060756835,0.03252565684863007,11.0,16.80324111652429,6.20604610673576E9,0.0,0.0,4859368.778885761,0.0,0.0,0.0,0.0,0.0,0.0,-201.98733863269237,38635.36905864715,742042.4020190849,861.4188307780861,2.029787204688815E7,-0.24230183277168793,0.11377471829815719,9.0,104.0,1856.1493,-2088.684
Finger2,227.70432077339143,664.2606865239562,146.509714973097,748.22829388246,74.72004443304604,7.167993030677252,-0.03222513067556332,74.72004443304604,7.167993030677252,-0.03222513067556332,74.72004443304604,7.167993030677252,-0.03222513067556332,74.72004443304604,7.167993030677252,-0.03222513067556332,19.0,32.21286027542822,4.982994802497329E10,0.0,0.0,0.0,0.0,0.0,0.0,0.0,0.0,0.0,-34.191918949484545,72627.75952003455,876095.6304813932,935.999802607561,4.2436605448152386E7,0.10563832164316134,-0.573466832480948,8.0,194.0,1673.6664,-2384.1614
Finger2,321.168462260944,854.7586897049268,72.38434560657474,860.4225595457609,908.9882663941062,73.99060962585281,-10.007919773677258,172.1146411557802,-2.975478377947937,0.019539707415343832,828.0243256757294,-22.65082707204965,-0.6574678230626745,172.1146411557802,-2.975478377947937,0.019539707415343832,27.0,36.19804426483379,1.9872826097104244E10,1.0,0.8315758545028672,4.4618760982538116E8,0.0,0.0,0.0,0.0,0.0,0.0,-51.799482565018636,65119.50939644839,507292.9354234477,712.2449967696843,3.456154281650118E7,1.1379047093628971,-0.6702896188066124,15.0,269.0,1821.8079,-2177.71
Finger2,89.45401734188903,441.51055152340143,112.34873191295374,510.03688178994344,101.61238694035183,57.32277348337266,0.3908105683154872,101.61238694035183,57.32277348337266,0.3908105683154872,101.61238694035183,57.32277348337266,0.3908105683154872,101.61238694035183,57.32277348337266,0.3908105683154872,1.0,0.8405615131591809,1.0848378497778244E7,0.0,0.3544219415406846,1.2490650195220001E7,1.0,0.8360200475354308,6.0187386806773104E7,0.0,0.0,0.0,621.617212352941,5566.994997289924,139111.85413787287,372.9770155624511,2204652.8272570735,-1.685186929343546,-0.05057790418900705,0.0,17.0,1123.9014,134.74731
Finger2,441.0637846466878,884.5185432032168,94.81612664433437,975.6444658273397,309.1645075173665,3.3783026592452643,-0.01301361452969485,309.1645075173665,3.3783026592452643,-0.01301361452969485,309.1645075173665,3.3783026592452643,-0.01301361452969485,0.0,0.0,0.0,22.0,33.54702976977745,1.1220966921555814E11,0.0,0.0,0.0,1.0,0.8329988918545562,2.3364539302939847E8,0.0,0.0,0.0,74.79537402233495,93214.36880695327,1164022.0029854947,1078.898513756273,5.7657389835794725E7,-0.9538147447567811,0.1670828541145898,9.0,197.0,2269.052,-1855.7465
Finger2,147.53551539261045,371.3210547094275,95.87471549303673,442.55133869294855,196.59401601673335,8.399798269012393,-0.043952956003946,196.59401601673335,8.399798269012393,-0.043952956003946,196.59401601673335,8.399798269012393,-0.043952956003946,196.59401601673335,8.399798269012393,-0.043952956003946,21.0,32.75467695259882,5.7032416297951416E10,0.0,0.359201888242664,8565950.340790285,1.0,1.7606625455666967,1.2330064324777575E8,0.0,0.0,0.0,-40.95233554432987,89245.07817725909,1103568.747099892,1050.508803913557,5.3400911815382674E7,-0.6478747971078853,-0.19195500194062384,7.0,194.0,2059.076,-2590.9148
Finger2,270.0769571083717,985.1614675268735,187.08972669383252,1149.1326960060223,588.8861744106271,-4.3547324209334874,0.1112016324057663,588.8861744106271,-4.3547324209334874,0.1112016324057663,588.8861744106271,-4.3547324209334874,0.1112016324057663,588.8861744106271,-4.3547324209334874,0.1112016324057663,7.0,9.028641236395774,3.8778780706511345E9,0.0,0.3569319030968692,6.3460215142142795E7,1.0,0.8407575179471433,2.983012392828172E8,0.0,0.0,0.0,-88.92517022580658,36897.71757341411,1733238.029373235,1316.5249824341486,2.6814865782602437E7,-1.1032050860850888,-0.10210982217045347,4.0,62.0,2148.8066,-2526.1597
Finger2,377.1935254057444,957.3305851207622,170.74303577506535,1029.618467306763,225.7746150126659,4.455847812197703,-0.0025000364937692865,225.7746150126659,4.455847812197703,-0.0025000364937692865,225.7746150126659,4.455847812197703,-0.0025000364937692865,225.7746150126659,4.455847812197703,-0.0025000364937692865,22.0,35.02294678342065,2.2626462914166897E10,0.0,0.33418598323299353,9.477107772459698E7,0.0,0.0,0.0,0.0,0.0,0.0,-75.24409659712235,71904.75303805569,1361065.012102072,1166.6469097812208,4.769372863643146E7,-0.9637016601045323,-0.09485476443772171,7.0,139.0,2301.2786,-2270.7642
Finger2,196.86895251908496,589.5544476510354,99.01410601485875,643.6621741207126,461.0079675953357,13.723018125303781,-0.17262790427144203,461.0079675953357,13.723018125303781,-0.17262790427144203,461.0079675953357,13.723018125303781,-0.17262790427144203,461.0079675953357,13.723018125303781,-0.17262790427144203,11.0,17.71356928566656,1.6284672232173391E10,0.0,0.0,5261177.128095359,0.0,0.0,0.0,0.0,0.0,0.0,-163.38685758089875,54884.40658479383,1873737.305352418,1368.8452452167185,4.198893119837973E7,-1.199884190936669,-0.1605511021350726,6.0,89.0,2326.9592,-2517.8008
Finger2,656.7353774053157,1139.2996269627158,347.83434809813457,1316.180579494674,667.4455248126314,-25.017390753816755,0.39646241068275057,667.4455248126314,-25.017390753816755,0.39646241068275057,1140.647038943729,-118.06608299400432,4.238832521604309,667.4455248126314,-25.017390753816755,0.39646241068275057,13.0,17.143364601904867,2.610077472351671E9,0.0,0.3550035311859266,8.897108428831184E7,0.0,0.0,0.0,0.0,0.0,0.0,-72.37463145569633,39574.81819043896,1351633.7050762523,1162.5978260242243,2.7665974351291806E7,-0.25301647894477686,-0.6057840577156209,4.0,79.0,1813.3484,-2826.1687
Finger2,27.013766348073744,201.09354127803255,171.35774788423294,216.1448241821501,723.4552700431564,-4.772206967144413,0.003142246381326652,723.4552700431564,-4.772206967144413,0.003142246381326652,723.4552700431564,-4.772206967144413,0.003142246381326652,723.4552700431564,-4.772206967144413,0.003142246381326652,11.0,16.22582615284404,1.4770702368794975E10,1.0,0.8269513545343241,2.6931316105728015E7,3.0,4.585876277501255,3.758478610939619E7,0.0,0.0,0.0,-76.73035106850647,58978.99898656985,932287.0421448365,965.5501240975719,3.585362195916746E7,0.3486645642620254,0.6862664691961308,6.0,154.0,2494.7388,-1918.7897
Finger2,249.03548445783196,647.5860185469445,81.43497572462726,696.4015292621086,659.3242147837964,-121.42845528144835,7.311984233924932,659.3242147837964,-121.42845528144835,7.311984233924932,659.3242147837964,-121.42845528144835,7.311984233924932,659.3242147837964,-121.42845528144835,7.311984233924932,0.0,0.0,0.0,0.0,0.3568941977707154,2.227673639303658E7,1.0,0.8395517966749994,1.2731975266957146E8,0.0,0.0,0.0,13.809059202395128,63264.554406292125,841196.9568671654,917.1679000418437,3.5086654959637865E7,-0.18270884757299255,-0.4619661936775363,10.0,167.0,1836.9141,-2277.008
Finger2,238.77346328667622,807.4170643788015,101.65081080786906,848.6413310549814,816.5766688721601,-146.7536274098302,5.939131675965939,0.0,0.0,0.0,0.0,0.0,0.0,816.5766688721601,-146.7536274098302,5.939131675965939,11.0,16.392701120957003,7.148672719354319E9,0.0,0.3584058035715435,3.2457362292001516E7,1.0,0.842560937075294,1.928684506774885E8,0.0,0.0,0.0,-192.33346680325204,68734.65791520479,1530015.3417566677,1236.937889207323,4.8009490294334464E7,-0.4232344790037006,0.7871401493395752,4.0,123.0,2883.2703,-2049.6094
Finger2,149.12825907134865,597.9299716911912,281.69407007117564,675.2390434330579,294.2538915718401,5.4361026974993365,14.89882113980434,855.2251010007449,-16.17083237898811,0.13474912023336216,855.2251010007449,-16.17083237898811,0.13474912023336216,855.2251010007449,-16.17083237898811,0.13474912023336216,11.0,17.540779600233524,7.860746258299581E9,0.0,0.0,0.0,0.0,0.0,0.0,0.0,0.0,0.0,-124.4966861011904,41615.99259722723,1297784.3259989356,1139.203373414482,2.7192281271344036E7,-0.3171427944117218,0.6904577558568452,4.0,84.0,2641.9739,-1895.8282
Finger2,52.35272999537267,245.27799600111751,95.19332555440451,295.2296497585496,312.20671553867203,7.404440533500747,-10.525199088268892,0.0,0.0,0.0,312.20671553867203,7.404440533500747,-10.525199088268892,312.20671553867203,7.404440533500747,-10.525199088268892,0.0,0.0,0.0,0.0,0.0,0.0,1.0,0.846038171755482,1.868192621190065E7,0.0,0.0,0.0,-31.025820373076904,60810.12065572118,867851.7249309007,931.5855972109598,3.366183680481611E7,-0.40473772772101224,0.14832233686254523,6.0,156.0,2146.3896,-1972.1649
Finger2,94.13889565967713,376.285832555986,297.51787352914926,463.9475567291291,379.02336206021073,-96.11569538698257,7.83723507684374,0.0,0.0,0.0,0.0,0.0,0.0,379.02336206021073,-96.11569538698257,7.83723507684374,21.0,32.602037513489606,2.6267312290993904E10,0.0,0.0,2513320.2592495214,1.0,0.8628696696139115,4.285554201715939E7,0.0,0.0,0.0,-82.17483724489209,64258.18165119459,1222660.2504706807,1105.7396847679297,4.232113393403812E7,-0.38383737121578676,-0.2753943937204871,9.0,139.0,2460.8,-2441.867
Finger2,236.0655897667278,741.8518767968394,167.96715820583978,860.51005195071,221.8151007756628,3.6842406477721,-0.00942352566538096,221.8151007756628,3.6842406477721,-0.00942352566538096,221.8151007756628,3.6842406477721,-0.00942352566538096,221.8151007756628,3.6842406477721,-0.00942352566538096,10.0,16.500921433297187,5.821247573601639E9,0.0,0.3597124393695648,3.536211049240632E7,0.0,0.0,0.0,13.0,18.131444012865053,6.411291916737639E9,-24.59546284313722,38318.084563816185,778241.0408346523,882.179710056093,1.9847441103583883E7,-0.2925017511631043,0.15017873190127548,5.0,102.0,2101.6753,-1931.076
Finger2,148.26156772358974,570.7404879828645,54.024604044331035,671.6458193713805,0.0,0.0,0.0,704.37394717407,8.96168187791045,-18.658385206654202,704.37394717407,8.96168187791045,-18.658385206654202,0.0,0.0,0.0,15.0,18.37726965992905,2.8797402772995505E9,0.0,0.35387575755528117,1.9707332168675065E7,0.0,0.0,0.0,0.0,0.0,0.0,-53.00316383969463,44860.18796042721,650753.9942039463,806.6932466581993,2.133213945671318E7,-0.5541257039014518,-0.5459243537531369,14.0,131.0,1227.4292,-1912.9486
Finger2,190.09554566965414,499.59168976151614,59.66311689383536,516.1985408016739,-0.4078263014953336,11.737083725931114,-0.054139681042829846,-0.4078263014953336,11.737083725931114,-0.054139681042829846,-0.4078263014953336,11.737083725931114,-0.054139681042829846,0.0,0.0,0.0,26.0,35.267422470337195,6.092238140598847E10,0.0,0.33368435710125693,2.3317910852726385E7,1.0,0.8426717833382998,7.664571031802826E7,0.0,0.0,0.0,-21.101721252746128,88654.80880145995,1347070.3567710575,1160.6336014311569,6.482966072281527E7,0.37773135645247446,0.40804650105916285,8.0,193.0,3161.4258,-2652.3467
Finger2,250.8674909993226,797.314976272804,169.96067424427082,867.8889543525756,283.94477428832124,7.252666331946102,-0.03832702309056524,283.94477428832124,7.252666331946102,-0.03832702309056524,283.94477428832124,7.252666331946102,-0.03832702309056524,283.94477428832124,7.252666331946102,-0.03832702309056524,11.0,16.645512162826616,1.9994314618805893E10,0.0,0.35602113650438055,3.707643543555318E7,1.0,0.8366791273372242,1.9459293866135523E8,11.0,17.326564539889777,1.124126362051907E10,-11.707091727272708,64658.58885477559,1450545.809917886,1204.3860717883972,4.372274022611161E7,-1.0885309990805143,-0.2541539645735967,6.0,121.0,1881.5277,-2357.0708
Finger2,203.49234191315063,487.15588071545216,123.24625599736282,541.5449388436194,297.7462790167856,5.172089469291706,-0.0290210605974624,297.7462790167856,5.172089469291706,-0.0290210605974624,297.7462790167856,5.172089469291706,-0.0290210605974624,297.7462790167856,5.172089469291706,-0.0290210605974624,25.0,35.372617105682565,2.9640191396106365E10,0.0,0.0,3112767.051828674,1.0,0.842738785244481,6.838678442097984E7,0.0,0.0,0.0,38.26629634081814,87795.64451555106,960694.0929796884,980.150035953521,5.275251666617507E7,0.13537759234915425,0.131001671294033,18.0,220.0,2770.175,-2507.73
Finger2,207.71094685357104,408.32675261452863,173.4181229692193,414.2942777739295,0.0,0.0,0.0,443.14756769166297,22.77588776410903,-11.359188950733824,443.14756769166297,22.77588776410903,-11.359188950733824,443.14756769166297,22.77588776410903,-11.359188950733824,0.0,0.0,0.0,0.0,0.35835937589714345,7533957.9532871405,1.0,0.8344871912334532,4.960643269111682E7,0.0,0.0,0.0,0.0,0.0,0.0,0.0,0.0,0.0,0.0,0.0,0.0,0.0,0.0
Finger2,222.63291763886951,450.4256616690445,117.94347178116872,467.4108617385469,495.08696092406024,-1.80010986328125,-1.80010986328125,495.08696092406024,-1.80010986328125,-1.80010986328125,495.08696092406024,-1.80010986328125,-1.80010986328125,495.08696092406024,-1.80010986328125,-1.80010986328125,23.0,34.98380212217289,2.2625048767485104E10,0.0,0.0,0.0,0.0,0.0,0.0,0.0,0.0,0.0,-75.61066401129939,52751.91602922613,495107.47927416116,703.6387420218995,2.2183476488126464E7,-0.30822963366509937,0.237317067146851,13.0,177.0,1479.1992,-1684.9457
Finger2,83.45480598066756,344.2684092943377,70.90608239931025,369.3341453473755,72.56342694610339,3.9468838663149484,-0.016917540257306074,72.56342694610339,3.9468838663149484,-0.016917540257306074,72.56342694610339,3.9468838663149484,-0.016917540257306074,72.56342694610339,3.9468838663149484,-0.016917540257306074,0.0,0.0,0.0,0.0,0.0,0.0,1.0,0.823858457276525,3.3182844659370095E7,0.0,0.0,0.0,-43.540718959615404,49680.59709167632,338249.10137717664,581.5918683898328,1.7616661775541622E7,0.2958441277983441,0.17723724717917666,15.0,208.0,1879.6143,-1291.4795
Finger2,79.23071323693668,370.41220061217274,87.28751572210652,396.17398358359,0.0,0.0,0.0,298.44474386437037,1.1111952358638888,-0.010446733857083723,298.44474386437037,1.1111952358638888,-0.010446733857083723,298.44474386437037,1.1111952358638888,-0.010446733857083723,21.0,31.816652078438135,3.496548513368562E10,0.0,0.3585960767566329,6764963.5797900045,0.0,0.0,0.0,0.0,0.0,0.0,24.715569777586264,58280.00114281656,393241.7032994503,627.0898685989515,2.2764412199250758E7,0.370998960860943,-0.5368169691399858,10.0,232.0,1510.5194,-1681.8237
Finger2,169.3109403918976,659.106228123369,63.40030952655525,746.5706874418336,457.3741259395624,-5.272584687218767,0.043153338047451584,457.3741259395624,-5.272584687218767,0.043153338047451584,457.3741259395624,-5.272584687218767,0.043153338047451584,457.3741259395624,-5.272584687218767,0.043153338047451584,15.0,19.406176174460537,8.119779199874618E8,0.0,0.0,6664395.755710811,1.0,0.8473119889407771,1.305849297828659E8,0.0,0.0,0.0,-96.14758835000002,48528.1369180034,681411.771256898,825.476693345668,2.30783995430865E7,-0.6860375100584379,0.3209052622115806,9.0,134.0,1751.8158,-1664.3005
Finger2,147.0065030668727,458.5092998372682,108.4073349895208,539.9796272897701,0.0,0.0,0.0,0.0,0.0,0.0,0.0,0.0,0.0,0.0,0.0,0.0,0.0,0.0,0.0,0.0,0.3541940398088462,1.4690714723399539E7,1.0,1.8455708049678423,5.578896291708336E8,0.0,0.0,0.0,0.0,0.0,0.0,0.0,0.0,0.0,0.0,0.0,0.0,0.0,0.0
Finger2,252.56362447545712,474.21870235446846,132.81377015928626,567.5178059747628,472.98488154660004,-65.12134649058248,4.235635300881938,0.0,0.0,0.0,472.98488154660004,-65.12134649058248,4.235635300881938,472.98488154660004,-65.12134649058248,4.235635300881938,13.0,18.072689012346586,1.291654974613522E10,0.0,0.35733613851306184,1.4191854590841359E7,0.0,0.0,0.0,12.0,17.977607194315095,8.654907161177458E9,-77.52700047655745,53043.59206705835,1073586.3809678357,1036.1401357769303,3.2876963862750612E7,-0.12101160086467111,0.026042192155600042,8.0,122.0,1988.3789,-2666.4458
Finger2,206.55534397401834,725.1636435011407,70.83831712202633,795.8429973137739,828.4322943760628,-12.189109802246094,-12.189117431640625,828.4322943760628,-12.189109802246094,-12.189117431640625,828.4322943760628,-12.189109802246094,-12.189117431640625,828.4322943760628,-12.189109802246094,-12.189117431640625,13.0,18.1099976274119,8.016719704403239E9,0.0,0.0,6310447.95566025,0.0,0.0,0.0,12.0,17.946454272581605,9.071663303947178E9,-59.462299726229546,41755.24874456264,652960.6036855644,808.0597772971777,2.0011573135924604E7,-0.4443578111665678,-0.015530998611100508,9.0,122.0,1753.9307,-1865.1123
Finger2,105.45874026238693,248.44244258500035,88.28098094905141,277.3976474527169,294.3145226963045,17.055573025939566,-2.8538797242520957,294.3145226963045,17.055573025939566,-2.8538797242520957,294.3145226963045,17.055573025939566,-2.8538797242520957,294.3145226963045,17.055573025939566,-2.8538797242520957,23.0,34.05031877021496,4.7914029370951256E10,0.0,0.0,0.0,1.0,0.8363350759621009,1.9762768281665545E7,0.0,0.0,0.0,-39.27061385074628,97142.08006838657,1352194.7578167552,1162.839093691279,6.772336385305992E7,-0.19660953639611645,0.02019809349346138,9.0,201.0,2825.9673,-2941.7815
Finger2,587.3682250545543,932.9181011070838,72.1580918075984,1040.7941164506813,121.51130151026109,-2.9048903719377677,0.015875083324894512,121.51130151026109,-2.9048903719377677,0.015875083324894512,121.51130151026109,-2.9048903719377677,0.015875083324894512,121.51130151026109,-2.9048903719377677,0.015875083324894512,50.0,70.15620810048702,2.5425236384959312E10,0.0,0.33377343792033565,9.828531511880632E7,1.0,0.8394374184592772,2.743643204045089E8,0.0,0.0,0.0,-19.276258369090893,46334.315840545445,313009.99249863345,559.4729595777025,2.438407841522041E7,4.815651313908595,-1.0111998625692467,17.0,297.0,1813.0463,-2276.4038
Finger2,364.707684729507,633.2188560121587,85.0294926024302,665.5808991130132,74.1078567650502,10.746001076264577,-0.05420400266929937,74.1078567650502,10.746001076264577,-0.05420400266929937,74.1078567650502,10.746001076264577,-0.05420400266929937,74.1078567650502,10.746001076264577,-0.05420400266929937,11.0,17.14282188874178,1.6288890787135273E10,1.0,1.8308444920869271,7.358466968236415E8,0.0,0.0,0.0,0.0,0.0,0.0,-67.88391330083326,54787.06969872576,1168888.5197426802,1081.1514786294658,3.5365427689062454E7,-0.5349014145411446,0.11049416779214034,5.0,120.0,2482.7544,-2034.906
Finger2,92.82143585488316,816.8730622166039,86.77588382428881,955.5507356886513,836.2550205955913,-195.37511509295769,8.547946866580276,836.2550205955913,-195.37511509295769,8.547946866580276,836.2550205955913,-195.37511509295769,8.547946866580276,836.2550205955913,-195.37511509295769,8.547946866580276,11.0,16.697971542546284,6.249382248642617E9,0.0,0.0,1.166434717753449E7,0.0,0.0,0.0,0.0,0.0,0.0,61.34523124534872,45654.568059540274,1363781.5183143672,1167.8105661083766,2.907844570075707E7,-1.196400414240306,-0.14568616016011288,4.0,86.0,2230.783,-2075.4912
Finger2,342.2848426318336,670.2436034713297,142.00812921650757,781.1707959227429,284.4032055834814,3.9898005485686667,-0.010894310778472693,284.4032055834814,3.9898005485686667,-0.010894310778472693,284.4032055834814,3.9898005485686667,-0.010894310778472693,284.4032055834814,3.9898005485686667,-0.010894310778472693,13.0,17.80246387789009,9.756669630831459E9,0.0,0.3564075599936188,2.8688067741396856E7,1.0,0.8439725968128601,1.454617170029053E8,0.0,0.0,0.0,-68.16672549107129,51619.977577039084,1192748.8230375452,1092.1304056922622,3.366820885407283E7,-0.61570318305579,-0.7241600977428247,7.0,112.0,1711.9354,-2400.778
Finger2,66.38362653996582,281.6082961178075,66.83976464746074,332.6622249807347,295.37060952193065,1.2929559045349492,-0.014910372947463002,295.37060952193065,1.2929559045349492,-0.014910372947463002,295.37060952193065,1.2929559045349492,-0.014910372947463002,295.37060952193065,1.2929559045349492,-0.014910372947463002,21.0,33.984433706043674,9.717680368987406E9,0.0,0.35664615447896875,5232716.22258546,0.0,0.0,0.0,25.0,34.6893917095457,1.1065846083949205E10,-4.728565355672489,44667.39019033275,451261.72988782835,671.7601728949315,1.919377115707428E7,0.9049622195183438,-0.3594745053289032,13.0,171.0,1854.7394,-1754.837
Finger2,139.58252433630003,653.9416499705058,106.86062205953019,768.7810918262396,592.2827852232786,0.3268940399930216,-0.01689383067775241,592.2827852232786,0.3268940399930216,-0.01689383067775241,592.2827852232786,0.3268940399930216,-0.01689383067775241,592.2827852232786,0.3268940399930216,-0.01689383067775241,14.0,18.40304101246154,7.401773672982144E9,0.0,0.3572368126197528,2.416369162046112E7,0.0,0.0,0.0,0.0,0.0,0.0,-170.15802352549014,56208.31372214042,1540526.1929543384,1241.1793556752136,3.971144554306856E7,-0.5973832049438097,0.1021834517750765,4.0,102.0,2458.484,-2940.3716
Finger2,112.97002404541658,618.282560146343,76.19165210187471,710.2405314086708,300.4544895717845,-0.8242096876419822,0.006325071060491572,300.4544895717845,-0.8242096876419822,0.006325071060491572,300.4544895717845,-0.8242096876419822,0.006325071060491572,300.4544895717845,-0.8242096876419822,0.006325071060491572,0.0,0.0,0.0,0.0,0.8147154890880617,9.846955567820242E7,1.0,0.8410314147251334,1.132221540761228E8,0.0,0.0,0.0,-19.39652430650409,80270.09685266676,557736.290708452,746.8174413526052,3.422788239597333E7,-0.6666555858466467,0.15440676331127598,13.0,246.0,1685.7513,-1623.9166
Finger2,112.97002404541658,618.282560146343,76.19165210187471,710.2405314086708,300.4544895717845,-0.8242096876419822,0.006325071060491572,300.4544895717845,-0.8242096876419822,0.006325071060491572,300.4544895717845,-0.8242096876419822,0.006325071060491572,300.4544895717845,-0.8242096876419822,0.006325071060491572,0.0,0.0,0.0,0.0,0.8147154890880617,9.846955567820242E7,1.0,0.8410314147251334,1.132221540761228E8,0.0,0.0,0.0,-19.39652430650409,80270.09685266676,557736.290708452,746.8174413526052,3.422788239597333E7,-0.6666555858466467,0.15440676331127598,13.0,246.0,1685.7513,-1623.9166