Klasse,minimumSteigungWert,maximumSteigungWert,minimumSenkungWert,maximumSenkungWert,steigungA,steigungB,steigungC,senkungA,senkungB,senkungC,mittelA,mittelB,mittelC,gesamtA,gesamtB,gesamtC,fftAnfangMedian,fftAnfangMittel,fftAnfangPSD,fftMitteMedian,fftMitteMittel,fftMittePSD,fftEndeMedian,fftEndeMittel,fftEndePSD,fftGesamtMedian,fftGesamtMittel,fftGesamtPSD,mittelwert,signalstärke,varianz,standardabweichung,energie,kurtosis,schiefe,zeroCrossings,laenge,maximalwert,minimalwert
Finger1,21.938887580473065,76.58570070908392,73.21946996931706,88.63543294087945,0.0,0.0,0.0,29.586581824818722,12.954190621717572,-0.7026141290325594,0.0,0.0,0.0,29.31108564944668,-0.044422632843753945,1.6705748300132724E-5,0.0,0.0,0.0,0.0,0.0,0.0,0.0,0.0,0.0,0.0,0.0,0.0,-1.9641457141650136,21953.656272431603,1250.2245385988858,35.35851437205593,782454.8658271232,20.988461070971304,0.9413286457852825,397.0,2521.0,266.7755,-259.021
Finger1,32.8040620630199,123.5211874596533,49.53920036423702,133.0348872530513,101.65750632457929,-3.7616188784765257,0.05169306066346979,83.39466611165568,-0.553161048072699,-1.803478080659171E-4,83.39466611165568,-0.553161048072699,-1.803478080659171E-4,83.39466611165568,-0.553161048072699,-1.803478080659171E-4,2.0,3.840105495388798,1.4398519509370426E7,0.0,0.35634542645264466,741088.5697239218,7.0,9.36299224215168,3.544670751493027E7,0.0,0.0,0.0,4.497133610344832,5147.053858726157,18290.770991108435,135.2433768844465,396296.1638328126,-0.5000669745604638,-0.4731153918984917,6.0,87.0,220.85266,-314.5111
Finger1,50.400428942885604,140.32534750389777,83.97542414091053,175.34284447592643,165.3994921895503,-9.623758460401348,0.22941778465202933,165.3994921895503,-9.623758460401348,0.22941778465202933,165.3994921895503,-9.623758460401348,0.22941778465202933,165.3994921895503,-9.623758460401348,0.22941778465202933,1.0,1.3390207284973936,114963.27210858701,0.0,0.3528444813867776,1633054.4689662217,3.0,5.0468050162004605,4426111.975014698,0.0,0.0,0.0,38.757324030303,3001.378233236432,41230.48197709186,203.0529043798484,337225.20734626753,-1.3975617271001575,0.26245539703975646,2.0,33.0,364.16016,-222.46399
Finger1,100.04781760733871,193.80186241310355,85.844540565352,208.4984986842291,95.76874737008939,35.68408745480417,-2.624917184278587,95.76874737008939,35.68408745480417,-2.624917184278587,95.76874737008939,35.68408745480417,-2.624917184278587,95.76874737008939,35.68408745480417,-2.624917184278587,1.0,0.8539218940958361,127220.3734737637,0.0,0.3343792810604085,3798003.9742604713,0.0,0.0,0.0,0.0,0.0,0.0,281.1297588666667,2519.0694522207314,37365.75964672973,193.30224946112173,453310.30941865954,-0.4937610645808723,-0.8856087053337219,1.0,15.0,469.0979,-161.73706
Finger1,35.32852138480839,89.22828672635275,30.89737438739553,118.64380245082431,109.6322605812245,-1.2999226828320474,0.007248501362230209,109.6322605812245,-1.2999226828320474,0.007248501362230209,109.6322605812245,-1.2999226828320474,0.007248501362230209,0.0,0.0,0.0,0.0,0.0,0.0,0.0,0.3537804971771565,510988.9158974163,7.0,9.799047252984588,5.7199542500363104E7,0.0,0.0,0.0,-29.823592876075942,5824.62791235215,27586.626550331843,166.09222302784633,560417.9790162651,-0.8777115800046174,-0.13476869847269288,7.0,79.0,285.5072,-359.22546
Finger1,53.652175409243384,123.02308661185624,68.02971634890153,151.8693092200013,160.55061987319402,1.7499341881280088,-5.154799844315676,160.55061987319402,1.7499341881280088,-5.154799844315676,160.55061987319402,1.7499341881280088,-5.154799844315676,160.55061987319402,1.7499341881280088,-5.154799844315676,0.0,0.8036392772432801,379593.27192709286,0.0,0.0,0.0,0.0,0.0,0.0,0.0,0.0,0.0,-28.48874596153847,2507.397628918059,40839.62914381914,202.08817170685458,267896.9103242012,-1.5469502261958423,-0.23100754078514965,1.0,26.0,232.7362,-337.0697
Finger1,65.53307698294844,190.76527937872086,57.267106666378474,203.67608615260755,56.36726028086275,24.586184884238037,0.03442931816655914,42.72463391988981,43.59034346940251,-3.1566540272229062,42.72463391988981,43.59034346940251,-3.1566540272229062,42.72463391988981,43.59034346940251,-3.1566540272229062,1.0,1.0384280180609289,1375913.0558941523,0.0,0.0,450534.78486845444,1.0,0.8360782051465018,9945515.453545205,0.0,0.0,0.0,-242.84057493,2013.851735881618,25402.761859172057,159.38243899241866,315640.87945162033,-1.5369343898233154,0.005020022080943943,1.0,15.0,0.70495605,-474.63684
Finger1,34.579997223210896,145.8048633490824,86.67551335482739,145.8715554217146,105.75287991026289,-4.86432159004606,0.13357186780142527,105.75287991026289,-4.86432159004606,0.13357186780142527,105.75287991026289,-4.86432159004606,0.13357186780142527,105.75287991026289,-4.86432159004606,0.13357186780142527,2.0,3.8233802843758693,3.5996845698454686E7,0.0,0.0,0.0,1.0,0.8347231312648539,6234429.26576379,0.0,0.0,0.0,13.177642520000003,3179.5105218733966,33380.28696186185,182.7027283919478,320058.2567083071,-0.8435326644429124,-0.7520797576388549,2.0,40.0,227.90222,-358.92334
Finger1,50.53568599500596,121.37708182829365,57.46644631363101,131.19110302326604,142.8925520942156,7.771867226701488,-5.306549523035528,78.51731055413256,-6.101707358817265,0.33363881965630426,78.51731055413256,-6.101707358817265,0.33363881965630426,78.51731055413256,-6.101707358817265,0.33363881965630426,0.0,0.0,0.0,0.0,0.3595778936056676,609937.3891640307,0.0,0.0,0.0,0.0,0.0,0.0,0.0,0.0,0.0,0.0,0.0,0.0,0.0,0.0,0.0,0.0,0.0
Finger1,29.7965620838909,154.9522413396102,40.280471214438606,170.40254253885686,160.38132309213725,-47.49939557025215,4.051651476844235,160.38132309213725,-47.49939557025215,4.051651476844235,160.38132309213725,-47.49939557025215,4.051651476844235,160.38132309213725,-47.49939557025215,4.051651476844235,1.0,1.076907453227642,544821.6470746401,0.0,0.3565134660254594,1193786.1109765398,0.0,0.0,0.0,0.0,0.0,0.0,-196.77715206875,1741.8152703928845,22347.087984634796,149.48942432371194,239215.8667741031,-1.5756777918703555,-0.034855136495962794,1.0,16.0,22.76001,-415.82336
Finger1,103.60896318223311,234.67568794522506,69.16614615623463,249.61619545523212,98.297422488449,-3.189848171946508,0.05274163518345065,98.297422488449,-3.189848171946508,0.05274163518345065,98.297422488449,-3.189848171946508,0.05274163518345065,98.297422488449,-3.189848171946508,0.05274163518345065,11.0,16.478093709195036,3.2208306064111435E8,0.0,NaN,0.0,0.0,0.81171175280638,1.5273478015313178E7,0.0,0.0,0.0,-30.5897541060241,7175.020887500721,39810.16766856073,199.5248547639134,851911.5241397092,-0.12520160644372647,-0.5899644197344225,6.0,83.0,266.37268,-537.57935
Finger1,29.54848292469156,115.44301970947846,83.45266214501538,140.88270016516887,135.1088874408897,-5.329182856132718,0.11776834409368098,135.1088874408897,-5.329182856132718,0.11776834409368098,135.1088874408897,-5.329182856132718,0.11776834409368098,135.1088874408897,-5.329182856132718,0.11776834409368098,3.0,4.117341349135771,3.766679461740122E7,0.0,0.0,0.0,0.0,0.0,0.0,0.0,0.0,0.0,22.238697808823538,3079.550175200612,41603.42325331627,203.96917231120068,343416.245714056,-1.1884927521072632,-0.1283396632880688,2.0,34.0,338.07678,-340.6952
Finger1,68.11581757656184,110.38233464311557,49.17875308926237,138.49236692117063,75.67085124841117,-2.767991929932677,0.09179628188741829,0.0,0.0,0.0,75.67085124841117,-2.767991929932677,0.09179628188741829,75.67085124841117,-2.767991929932677,0.09179628188741829,0.0,0.7984458271561554,80608.78358261762,1.0,0.8293496061450109,5727547.60305752,5.0,7.857281079710804,4.827298819760954E7,0.0,0.0,0.0,-18.03068167450981,4117.758870269413,30416.253596226936,174.40256189697138,398599.4932284748,-0.7677113619584763,0.7326804433186327,2.0,51.0,341.9037,-247.8424
Finger1,27.7562670114755,181.96171250685055,44.59515602501989,202.83175083189656,215.64236704265807,-3.429901123046875,-3.429903030395508,51.79459106311322,52.30745113970937,-4.866987823215204,51.79459106311322,52.30745113970937,-4.866987823215204,51.79459106311322,52.30745113970937,-4.866987823215204,2.0,1.9756452975917023,31512.298678333562,0.0,0.0,242221.4951296009,1.0,0.8413839210386508,8718834.64266401,0.0,0.0,0.0,200.62584379230768,1589.7687881458685,41216.60933692681,203.01874134406117,255414.43230408744,-1.6931809234612132,0.25788805949267923,2.0,13.0,502.23083,-48.54126
Finger1,40.69419818522588,137.5880508656712,55.90881410472379,168.8599025504655,85.6480978466551,11.311037306417376,-0.6861656532371594,85.6480978466551,11.311037306417376,-0.6861656532371594,85.6480978466551,11.311037306417376,-0.6861656532371594,85.6480978466551,11.311037306417376,-0.6861656532371594,1.0,0.9152998523502452,509387.9948756887,0.0,0.0,256094.43621390755,2.0,2.770251254355039,1180212.2229341578,0.0,0.0,0.0,-45.92764647619048,2204.632465193237,48707.98020081497,220.6988450373381,258961.39968332494,-1.4168561181340138,-0.09301797876924084,2.0,21.0,242.7063,-412.5
Finger1,22.310892836677105,129.35298671836995,58.86406341738283,160.02174170503625,0.0,0.0,0.0,0.0,0.0,0.0,0.0,0.0,0.0,0.0,0.0,0.0,1.0,0.9000260134433978,337381.5793416262,0.0,0.3593133920362242,1019465.2878301255,0.0,0.0,0.0,0.0,0.0,0.0,0.0,0.0,0.0,0.0,0.0,0.0,0.0,0.0,0.0,0.0,0.0
Finger1,32.05250505307863,207.6557406281637,82.95924898235764,236.61280931155136,103.62327250372903,49.18656642079793,-5.3771100416113455,103.62327250372903,49.18656642079793,-5.3771100416113455,103.62327250372903,49.18656642079793,-5.3771100416113455,103.62327250372903,49.18656642079793,-5.3771100416113455,1.0,1.2004358832405175,127069.36028103263,0.0,NaN,0.0,1.0,0.8503024689605416,1.271829901971993E7,0.0,0.0,0.0,215.94314766666665,1768.974973798296,68627.38048771181,261.9682814535222,318921.77038248646,-1.544456951990061,-0.13480723842066794,1.0,12.0,573.1293,-199.9054
Finger1,46.10855403764384,120.76645526084472,54.22466932297622,144.9621084363359,114.61710666125884,-3.078789496847179,0.05616482836261216,114.61710666125884,-3.078789496847179,0.05616482836261216,114.61710666125884,-3.078789496847179,0.05616482836261216,114.61710666125884,-3.078789496847179,0.05616482836261216,0.0,0.0,0.0,0.0,0.35506142850277866,849772.1807684532,0.0,0.0,0.0,0.0,0.0,0.0,-25.6340618076923,2289.748864566989,35527.83313345901,188.48828380952227,233489.28707650784,-1.29185617449635,-0.2917182786579794,2.0,26.0,239.78577,-346.73767
Finger1,31.052682288787256,184.1724439575818,76.93778672795399,218.66637218024505,187.7859826461305,-51.5840763196785,3.9137993626728047,122.37898214537506,-0.12481417550952756,-0.0011902889748958145,122.37898214537506,-0.12481417550952756,-0.0011902889748958145,122.37898214537506,-0.12481417550952756,-0.0011902889748958145,3.0,3.8715245201909587,2.9646234829130713E7,0.0,0.0,510543.5748238224,0.0,0.0,0.0,0.0,0.0,0.0,-7.461279294117649,4075.951511139221,72564.35918975362,269.3777258604609,594745.8796439319,-1.2175748702065807,-0.24302327862336823,2.0,34.0,360.9375,-507.46765
Finger1,73.75643401397724,164.92078267512355,64.94843265927726,184.231743303867,168.8407176277201,-35.536190254018834,3.113311106632878,168.8407176277201,-35.536190254018834,3.113311106632878,168.8407176277201,-35.536190254018834,3.113311106632878,168.8407176277201,-35.536190254018834,3.113311106632878,1.0,0.8695284886789751,733026.8254378671,0.0,NaN,0.0,0.0,0.0,0.0,0.0,0.0,0.0,-214.55453599999998,1612.7954306761924,20838.536537698514,144.35559060077483,223374.66235349217,-1.7484005872600248,-0.02701449825489635,0.0,13.0,-10.775757,-395.17822
Finger1,111.04814914528927,238.27409349644503,91.34151918344746,265.1063186399516,90.98821175416106,-3.1224467779498752,0.0934753010566256,90.98821175416106,-3.1224467779498752,0.0934753010566256,90.98821175416106,-3.1224467779498752,0.0934753010566256,90.98821175416106,-3.1224467779498752,0.0934753010566256,11.0,12.995326013088254,2.05272095985667E7,0.0,0.0,0.0,1.0,0.8299682336106722,2.6224181503446646E7,0.0,0.0,0.0,58.32314375540983,6735.615285254862,61828.54418381611,248.65346203866963,1016904.1505216893,-0.496801275009791,0.15210105874587,5.0,61.0,581.68945,-461.5448
Finger1,49.95542069921081,138.18336007905117,52.99949046916598,147.31103097885168,80.12341736185186,-1.7337724894351183,0.012633220850943927,80.12341736185186,-1.7337724894351183,0.012633220850943927,80.12341736185186,-1.7337724894351183,0.012633220850943927,80.12341736185186,-1.7337724894351183,0.012633220850943927,0.0,0.0,0.0,0.0,0.0,0.0,0.0,0.0,0.0,0.0,0.0,0.0,-13.28044014006802,6413.415847126317,11791.350164304113,108.58798351707298,443051.63323341,1.2537059228702088,0.7330452844208848,8.0,147.0,345.52917,-207.35779
Finger1,85.69011237169012,246.6247782496608,64.85542502138408,281.24905216521876,252.85468655722997,-63.48602399102788,5.790173044633036,252.85468655722997,-63.48602399102788,5.790173044633036,252.85468655722997,-63.48602399102788,5.790173044633036,252.85468655722997,-63.48602399102788,5.790173044633036,2.0,3.817032386922905,2.478536562092746E7,0.0,0.0,924016.8079878849,0.0,0.0,0.0,0.0,0.0,0.0,-49.58610478125,4834.883952656072,110870.15352989476,332.9717007943689,886025.8712680078,-1.3228489723875425,-0.2983227834723864,2.0,32.0,391.75415,-630.93567
Finger1,58.4784756819925,168.21445806687862,52.46961519717497,197.62387317586908,42.943180856438744,40.63496158996361,-2.796579997512982,42.943180856438744,40.63496158996361,-2.796579997512982,42.943180856438744,40.63496158996361,-2.796579997512982,42.943180856438744,40.63496158996361,-2.796579997512982,1.0,1.1287238833673288,833149.3322173719,0.0,0.35433759788649355,1788010.0453582122,1.0,0.8423121222755353,8642389.53228773,0.0,0.0,0.0,-230.93605187499998,2095.5270880119892,27984.877356996625,167.28681166486683,323562.00143856206,-1.4388669998129375,0.25448514168708586,1.0,16.0,47.332764,-443.61877
Finger1,31.391544067642094,171.55323176799564,75.34349650496655,195.74371676941755,173.42023268133153,-37.457017287034034,1.741985806018235,173.42023268133153,-37.457017287034034,1.741985806018235,82.69650947461253,39.85475432531774,-3.869174425762388,82.69650947461253,39.85475432531774,-3.869174425762388,3.0,2.0310793314931126,32688.81253394823,0.0,0.0,420629.5158385849,1.0,0.846159760534349,8725727.11970287,0.0,0.0,0.0,214.329881,1668.7620846261545,34715.669581152,186.3214147143371,254580.7738850281,-1.6105853199208222,-0.24999661803185375,1.0,13.0,454.89807,-65.460205
Finger1,40.36527134896529,149.05650760432755,44.85492676477111,159.03750602574826,61.00899238294335,-0.18041644711524896,0.059794775939017164,61.00899238294335,-0.18041644711524896,0.059794775939017164,61.00899238294335,-0.18041644711524896,0.059794775939017164,61.00899238294335,-0.18041644711524896,0.059794775939017164,3.0,4.0709028104628,6081452.093435576,0.0,0.3583152596786185,1030858.196185865,1.0,0.8366272892108239,6492755.234639156,0.0,0.0,0.0,-45.266724451515145,2602.089101912706,33197.57810659426,182.2020255282423,284034.14182435564,-1.0678477074008055,-0.3973907359819186,2.0,33.0,213.90381,-380.9784
Finger1,69.72726010910144,277.1327613092551,44.44926722563004,294.22814277896856,102.71932359164566,2.926879611972822,0.006526893854582383,102.71932359164566,2.926879611972822,0.006526893854582383,102.71932359164566,2.926879611972822,0.006526893854582383,102.71932359164566,2.926879611972822,0.006526893854582383,3.0,4.135841503780977,1.8368334758295868E7,0.0,0.0,1019287.657188973,1.0,0.843409031698482,2.2812550556703493E7,0.0,0.0,0.0,-60.70678719999999,5425.990238258569,116613.66374753647,341.4874283887131,1045026.0948174224,-1.3203665209579913,-0.3126579522422065,1.0,35.0,386.1145,-655.4077
Finger1,27.10366649618464,156.11616725931046,78.29637359554653,163.95183391062739,175.03573068234346,11.271588815483483,-3.792667225292689,175.03573068234346,11.271588815483483,-3.792667225292689,175.03573068234346,11.271588815483483,-3.792667225292689,0.0,0.0,0.0,0.0,0.7376271028502467,152318.98273910253,0.0,0.33444653691515597,2261796.5860332744,0.0,0.0,0.0,0.0,0.0,0.0,228.71459880000003,1875.436669980014,21919.267971379355,148.05157199901444,269858.65738603036,-0.7144745279703724,-0.7456509638739893,1.0,15.0,392.4591,-96.98181
Finger1,55.2872060917816,112.09941749581313,94.91981583472179,132.4634639095548,139.18150791059963,0.8251245232247584,-3.4177047458450716,85.75267395724427,-0.6233382658769742,0.004408740286630658,139.18150791059963,0.8251245232247584,-3.4177047458450716,85.75267395724427,-0.6233382658769742,0.004408740286630658,27.0,36.95895827464609,9.164823273683624E8,0.0,0.3530043605202621,759355.477384696,0.0,0.0,0.0,0.0,0.0,0.0,-9.981864055844154,11722.346905774399,29849.72245727834,172.77072222248287,1142762.6115887153,-0.21080421603433175,0.6447646743655487,12.0,154.0,448.65417,-301.51978
Finger1,115.99337006153402,238.67126149883117,93.91058872116685,269.20484439269603,112.92244138783417,50.62778960944331,-4.444629106327511,112.92244138783417,50.62778960944331,-4.444629106327511,112.92244138783417,50.62778960944331,-4.444629106327511,0.0,0.0,0.0,0.0,0.0,0.0,0.0,0.0,765363.3273622117,1.0,0.8421316925257788,1.8226482881513923E7,1.0,1.6656601894235252,3.215810482103988E7,276.98575676923076,2527.950409594772,86408.83153764551,293.9537915007145,538164.7727107967,-1.4938494465227663,-0.3959695344636786,1.0,13.0,631.94275,-211.68823
Finger1,41.26393051238493,131.6430235523035,49.72047244417595,153.0201116906976,28.454553656407597,9.029354683091356,-0.22333497919238354,28.454553656407597,9.029354683091356,-0.22333497919238354,28.454553656407597,9.029354683091356,-0.22333497919238354,28.454553656407597,9.029354683091356,-0.22333497919238354,5.0,5.662398338334298,6556058.449124791,0.0,0.0,0.0,0.0,0.0,0.0,0.0,0.0,0.0,80.56945850303032,3151.5473816573435,36653.28541152271,191.4504776999073,350673.96109137224,-1.2397911605909908,-0.2252132703300586,3.0,33.0,353.3844,-271.6095
Finger1,39.98386227193038,149.62461383976188,38.83757074464117,155.40793321656182,27.794909432598104,-0.07634329384048111,5.556261829605763E-5,27.794909432598104,-0.07634329384048111,5.556261829605763E-5,27.794909432598104,-0.07634329384048111,5.556261829605763E-5,27.794909432598104,-0.07634329384048111,5.556261829605763E-5,0.0,0.0,0.0,0.0,0.3587884361387218,1023459.810230161,1.0,0.8388214368258115,6605575.098155911,0.0,0.0,0.0,0.0,0.0,0.0,0.0,0.0,0.0,0.0,0.0,0.0,0.0,0.0
Finger1,20.421215354992384,65.89166961803097,47.41089807834244,72.76317663583171,74.47856896696067,-1.170669883419075,0.007238207740864977,74.47856896696067,-1.170669883419075,0.007238207740864977,74.47856896696067,-1.170669883419075,0.007238207740864977,74.47856896696067,-1.170669883419075,0.007238207740864977,2.0,3.629170124102669,2.03236567121806E7,14.0,19.124519451764538,1.2223311381054635E8,3.0,3.8219093693420954,5570247.742017166,0.0,0.0,0.0,7.520751600060606,7189.780621451218,10132.298381941016,100.65931840590326,418933.0263617992,-0.43300172153760563,-0.009502372037632278,11.0,165.0,249.15161,-224.67957
Finger1,70.81624617625094,137.3982885510599,57.75350937864904,155.67014164038687,67.7554011701676,-1.5875172055973898,0.013352288467866624,67.7554011701676,-1.5875172055973898,0.013352288467866624,67.7554011701676,-1.5875172055973898,0.013352288467866624,67.7554011701676,-1.5875172055973898,0.013352288467866624,14.0,19.3763170233024,6.020424049357663E7,0.0,0.0,207849.50579652248,0.0,0.0,0.0,0.0,0.0,0.0,2.3461493405517246,6679.517101817947,13588.223911573428,116.56853739999241,506598.92453845707,1.4546054066054293,-0.12560759977894442,17.0,145.0,320.25146,-372.92175
Finger1,29.50797905605346,143.83770454493393,74.71793189443848,151.6256127539355,73.56598910203093,28.802727016515178,-2.348243079647883,73.56598910203093,28.802727016515178,-2.348243079647883,73.56598910203093,28.802727016515178,-2.348243079647883,73.56598910203093,28.802727016515178,-2.348243079647883,3.0,1.9677402355487348,27182.743167069028,0.0,0.3336804766679382,2016139.8331996473,1.0,0.8364443951952627,6231198.84706583,0.0,0.0,0.0,197.50854456666667,1744.309448157618,25627.83361976693,160.08695643233065,230703.16336882883,-0.6115655112183878,-0.9011143394965583,1.0,15.0,352.98157,-148.74573
Finger1,43.87363759180905,166.51119136031605,33.914638361731505,195.88938277582773,35.07882304561599,46.111663004693526,-3.3886407237038796,35.07882304561599,46.111663004693526,-3.3886407237038796,35.07882304561599,46.111663004693526,-3.3886407237038796,35.07882304561599,46.111663004693526,-3.3886407237038796,0.0,0.0,0.0,0.0,0.3526832099836877,1756794.773594256,1.0,0.8404238043909689,8738258.958887674,0.0,0.0,0.0,220.69152778666665,1928.4366269684176,31096.17361387391,176.34107182920803,298340.9190130414,-1.729431436648408,-0.14617168611463766,1.0,15.0,438.48267,-11.682129
Finger1,16.643441807782374,63.75979442791575,32.313016040492585,96.05082247908416,22.302588182236207,-0.04203551832263153,2.4181790455480657E-5,22.302588182236207,-0.04203551832263153,2.4181790455480657E-5,0.0,0.0,0.0,22.302588182236207,-0.04203551832263153,2.4181790455480657E-5,0.0,0.0,0.0,0.0,0.33804261628482585,690859.9593702741,15.0,18.679065509393066,1.9146530395527586E7,0.0,0.0,0.0,0.0,0.0,0.0,0.0,0.0,0.0,0.0,0.0,0.0,0.0,0.0
Finger1,15.945929857115113,107.03915918686683,40.26614888436801,135.51277795570567,99.61945318965616,-3.4470808973280214,0.038331301026382325,99.61945318965616,-3.4470808973280214,0.038331301026382325,99.61945318965616,-3.4470808973280214,0.038331301026382325,99.61945318965616,-3.4470808973280214,0.038331301026382325,3.0,2.280249079757678,11717.603443878095,0.0,0.0,0.0,0.0,0.0,0.0,0.0,0.0,0.0,10.575632203846167,3366.0264258616844,11510.031371004568,107.2848142609408,223694.7366649427,0.8639595095649191,0.7749888556967265,4.0,78.0,314.10828,-218.03284
Finger1,53.0734690354484,161.59122250268615,49.90441068349982,170.55147379460792,84.35037166880898,18.233172906812058,-1.2277073542974755,84.35037166880898,18.233172906812058,-1.2277073542974755,84.35037166880898,18.233172906812058,-1.2277073542974755,84.35037166880898,18.233172906812058,-1.2277073542974755,3.0,2.2501046582220043,11367.4671459828,0.0,0.0,0.0,0.0,0.0,0.0,0.0,0.0,0.0,-72.06776911111115,2116.524518203326,58602.78591502625,242.08012292426292,276573.92471522465,-1.539942114535476,0.07525565115342799,2.0,18.0,288.52844,-401.2207
Finger1,67.45331475187511,190.15921558408772,76.31473063126262,207.98703299004606,66.91802878387762,-0.9232480136117474,0.0067486503466056,66.91802878387762,-0.9232480136117474,0.0067486503466056,66.91802878387762,-0.9232480136117474,0.0067486503466056,66.91802878387762,-0.9232480136117474,0.0067486503466056,27.0,37.99974052501739,2.290371330036849E8,0.0,0.0,512416.1966895503,1.0,0.8403620015380009,1.090463242349888E7,0.0,0.0,0.0,17.567434911156074,9387.473317296148,19678.030152147505,140.27840230109376,868130.2979243576,0.9923855769238688,0.9985307266331899,13.0,173.0,470.10498,-238.37585
Finger1,31.19175976565682,138.77341289893138,52.892924041589545,147.11020371407335,159.9727034594385,6.728129369355884,-4.823081175622292,159.9727034594385,6.728129369355884,-4.823081175622292,159.9727034594385,6.728129369355884,-4.823081175622292,159.9727034594385,6.728129369355884,-4.823081175622292,26.0,34.768492921749754,3.396867020232174E8,0.0,0.35086832697594217,858353.1918637599,1.0,0.8347749543971841,5790310.422946847,0.0,0.0,0.0,-3.682095258888893,6217.402269217844,10816.142151581565,104.00068341881973,414310.7885709261,1.6378753968646427,-0.9865144190507136,12.0,153.0,221.96045,-346.0327
Finger1,33.46783267458211,130.1790945386917,41.09363679527672,125.29897008583116,66.20129550464503,-3.362373570232556,0.04975904150155991,66.20129550464503,-3.362373570232556,0.04975904150155991,66.20129550464503,-3.362373570232556,0.04975904150155991,66.20129550464503,-3.362373570232556,0.04975904150155991,14.0,19.2283291594253,2.3101463822918702E7,0.0,0.7987036980304191,2966378.8242829205,1.0,0.822949604058491,4760435.997226487,0.0,0.0,0.0,24.8760626404706,3630.477309205293,14409.742134180715,120.04058536253775,316623.2132054392,0.6811853966213874,0.6273276648466726,5.0,85.0,340.49377,-213.29956
Finger1,86.98615340121826,249.60028326826657,89.84895504815007,276.2904567356994,87.21906139608768,40.127957803574645,-0.35239720801877183,87.21906139608768,40.127957803574645,-0.35239720801877183,87.21906139608768,40.127957803574645,-0.35239720801877183,82.00922352151906,58.50217992782518,-4.743249164304153,2.0,2.1511953106040855,70074.84766630697,0.0,0.0,0.0,1.0,0.8247507235032415,1.641019375108335E7,1.0,1.75491662009594,3.70289025149318E7,267.3509845,2587.1064379883496,90430.85424598378,300.7172330379218,552797.0018201168,-1.6022510053857637,-0.24361662925977332,1.0,14.0,645.2362,-188.22327
Finger1,62.82175990320702,149.93374673810484,61.35562533021097,159.98576178065144,103.37256863628147,-16.903154894616023,1.2593913200658733,0.0,0.0,0.0,103.37256863628147,-16.903154894616023,1.2593913200658733,103.37256863628147,-16.903154894616023,1.2593913200658733,2.0,2.0242993025680955,1764524.1067193127,0.0,0.0,80311.21270282891,0.0,0.0,0.0,0.0,0.0,0.0,-13.417664080999995,2961.9265574810847,45111.56430470142,212.3948311628638,343924.8179179228,-0.7233132504041557,0.3632678966059179,4.0,30.0,423.37646,-362.64954
Finger1,34.39740145832644,202.4920663528882,66.94291193786954,241.65764689503894,159.56783573643486,-2.6128701986889027,0.02400194453434068,159.56783573643486,-2.6128701986889027,0.02400194453434068,0.0,0.0,0.0,159.56783573643486,-2.6128701986889027,0.02400194453434068,0.0,0.0,0.0,0.0,0.0,0.0,1.0,0.8420924746575578,1.2137659844976595E7,0.0,0.0,0.0,33.208465009375026,10372.068663481947,57626.257720564005,240.0546973515911,1394904.984055871,-0.7497180613568815,0.3908598571234576,11.0,96.0,579.5746,-388.4308
Finger1,54.682682256059884,190.55059596003574,83.81910481968916,217.59325521885452,190.05308470454509,-32.56819820140504,1.1502828290817888,190.05308470454509,-32.56819820140504,1.1502828290817888,0.0,0.0,0.0,190.05308470454509,-32.56819820140504,1.1502828290817888,0.0,0.7785770680709104,126681.47265333025,0.0,0.0,0.0,0.0,0.0,0.0,0.0,0.0,0.0,267.9840086428572,2154.6837939642405,38495.75089422329,196.20334068058904,378922.4154889858,-1.0354650439826056,-0.46411417546407796,1.0,14.0,527.1057,-114.70642
Finger1,57.296634313287996,145.74915379470605,58.711851801575946,158.70768404088017,77.86331034436,-2.5502499986352234,0.04060452596657238,77.86331034436,-2.5502499986352234,0.04060452596657238,77.86331034436,-2.5502499986352234,0.04060452596657238,77.86331034436,-2.5502499986352234,0.04060452596657238,14.0,19.304494547538265,1.437859055267807E8,0.0,0.0,246702.84352561002,0.0,0.0,0.0,0.0,0.0,0.0,11.252183099999987,4714.9326880807275,19997.049983362318,141.4109259688314,396089.5516657799,0.32675716821499456,-0.7847328498539766,7.0,78.0,239.18152,-364.36157
Finger1,36.74207839163362,156.07299356720634,39.809723923477364,191.26627078114663,0.0,0.0,0.0,154.38781342919924,-29.481738045306315,1.223589079202327,154.38781342919924,-29.481738045306315,1.223589079202327,0.0,0.0,0.0,1.0,1.7626738935688653,1.0724510385056147E7,0.0,0.0,344364.23786931357,0.0,0.0,0.0,0.0,0.0,0.0,25.05877963043477,2542.9775949736177,58639.55223315537,242.15604934247537,328885.48448070005,-1.2530926933896775,0.5427103286174274,1.0,23.0,488.73596,-230.52063
Finger1,48.83600154640386,184.28837396151926,33.95735352475999,188.98149874504767,81.48635389884578,20.036037037477627,-1.2826545947342112,81.48635389884578,20.036037037477627,-1.2826545947342112,81.48635389884578,20.036037037477627,-1.2826545947342112,81.48635389884578,20.036037037477627,-1.2826545947342112,1.0,1.5690608106257433,19696.209528512027,0.0,0.0,167837.85807843608,0.0,0.0,0.0,0.0,0.0,0.0,88.50113831578948,2269.28451800715,61146.22931621001,247.27763610203414,318542.6907909252,-1.1267628076779674,-0.017093961425490935,3.0,19.0,487.62817,-345.52917
Finger1,77.11996372621107,199.2573349641867,53.6798336601658,221.08603523068953,0.0,0.0,0.0,94.58781104325021,-9.902571850482218,1.1382827390090675,94.58781104325021,-9.902571850482218,1.1382827390090675,94.58781104325021,-9.902571850482218,1.1382827390090675,0.0,0.0,0.0,0.0,NaN,0.0,0.0,0.0,0.0,2.0,3.9065553863739755,4.9774118518613994E7,-127.6641844444444,3259.133410091379,49751.16844086119,223.04969948614857,452477.10100956867,-0.5966748919436728,0.2800109564534864,2.0,27.0,319.04297,-494.3756
Finger1,52.82245879590474,163.98878998512623,57.191623746147435,175.97263058819985,82.72782431594601,17.7009624320811,-1.1302393648871885,82.72782431594601,17.7009624320811,-1.1302393648871885,82.72782431594601,17.7009624320811,-1.1302393648871885,82.72782431594601,17.7009624320811,-1.1302393648871885,1.0,1.0211899596036407,300331.62901167053,0.0,0.0,314544.7584804101,0.0,0.0,0.0,0.0,0.0,0.0,-85.05056305263155,2215.0184181690292,55132.63519063421,234.80339688904462,289424.81865815475,-1.5650525016925527,0.022179359018500818,3.0,19.0,254.99268,-418.7439
Finger1,108.77562732790457,217.20795655174524,92.78426877111808,241.3067568559906,125.60055250154846,25.005953354066605,-1.9650151001973697,125.60055250154846,25.005953354066605,-1.9650151001973697,125.60055250154846,25.005953354066605,-1.9650151001973697,125.60055250154846,25.005953354066605,-1.9650151001973697,1.0,1.5733126421411652,51675.81847122823,0.0,NaN,0.0,0.0,0.0,0.0,0.0,0.0,0.0,106.27380246666667,2515.143064255921,107328.26371142907,327.6099261491157,450367.7202905236,-1.5278057529410363,-0.024287934260542994,2.0,15.0,586.1206,-402.22778
Finger1,82.16790667450815,228.3884666169114,77.30707730902064,251.53766827445494,124.34607218727388,29.464268496317175,-2.427272486661927,124.34607218727388,29.464268496317175,-2.427272486661927,124.34607218727388,29.464268496317175,-2.427272486661927,124.34607218727388,29.464268496317175,-2.427272486661927,3.0,2.0211704560510566,103969.74903657474,0.0,NaN,0.0,3.0,2.67248863631168,1.6328141047642704E7,0.0,0.0,0.0,109.71130473333331,2495.2577022040114,112798.78590834163,335.85530501741613,459775.0922288663,-1.4748976457840632,0.08890166079137271,2.0,15.0,624.8932,-390.64636
Finger1,25.252661033463895,268.24920917608074,36.8308741799964,295.35549721502053,31.797032364976303,48.98061037282463,-2.663592341742568,31.797032364976303,48.98061037282463,-2.663592341742568,31.797032364976303,48.98061037282463,-2.663592341742568,31.797032364976303,48.98061037282463,-2.663592341742568,1.0,1.6803389856591373,7638985.755929073,0.0,0.0,0.0,0.0,0.0,0.0,0.0,0.0,0.0,48.13339102499999,3363.18353435002,148499.10062574188,385.35581042166973,718709.3335964455,-0.912444603901545,0.4258644350946466,3.0,20.0,766.1865,-534.3567
Finger1,47.632221142696174,146.90053797093725,90.02070761537529,163.2219299584532,88.2025326185327,27.81682807101032,-2.345224646589056,88.2025326185327,27.81682807101032,-2.345224646589056,88.2025326185327,27.81682807101032,-2.345224646589056,88.2025326185327,27.81682807101032,-2.345224646589056,0.0,0.7437174054187151,534350.9177158495,0.0,0.0,0.0,0.0,0.0,0.0,0.0,0.0,0.0,232.21252546666668,1863.401921328226,18124.765703085588,134.6282500186554,263919.29887115664,-0.9825788778233147,-0.45573078704984543,1.0,15.0,413.10425,-46.829224
Finger1,31.324691369489475,167.50122869685637,30.83210661358295,191.0835870689276,77.97371058826343,-0.7206838522014465,0.013919425058856127,77.97371058826343,-0.7206838522014465,0.013919425058856127,77.97371058826343,-0.7206838522014465,0.013919425058856127,77.97371058826343,-0.7206838522014465,0.013919425058856127,14.0,17.978664477143777,1.2002592308508573E8,0.0,0.0,0.0,0.0,0.0,0.0,15.0,18.71123387411006,1.0308761265150264E8,-0.33569306049383024,6399.788604421626,32525.011525281363,180.3469199218034,653864.5912055899,-0.4387082955185577,0.010062739131677219,8.0,81.0,322.36633,-414.81628
Finger1,26.8446919263549,118.34261726054422,34.731722222308065,123.35415730711857,0.0,0.0,0.0,74.01990528510396,-1.5645033657466882,0.02515443357399927,74.01990528510396,-1.5645033657466882,0.02515443357399927,74.01990528510396,-1.5645033657466882,0.02515443357399927,8.0,9.027624332672675,3.735381506455305E7,0.0,0.0,0.0,0.0,0.0,0.0,17.0,18.64114845487234,8.363294140990219E7,2.1189510689189155,4705.092552943672,19265.950260736947,138.80183810287582,353633.2388320805,-0.779359968833782,0.46205372601999223,6.0,74.0,324.98474,-207.35779
Finger1,15.466664815935673,194.65543205058086,89.02533820575294,235.4698705704601,144.32435959768281,-9.685537242414306,0.20032592258311865,144.32435959768281,-9.685537242414306,0.20032592258311865,144.32435959768281,-9.685537242414306,0.20032592258311865,144.32435959768281,-9.685537242414306,0.20032592258311865,2.0,1.779543408312314,54747.89713401091,0.0,0.0,0.0,0.0,0.0,0.0,7.0,9.764821461615481,3.465534029622275E7,-9.040832135000004,3297.2237832503597,37412.102820431115,193.4220846243549,397985.4523637506,1.824987081385232,1.6510063315048287,6.0,44.0,546.8445,-244.41833
Finger1,88.13058944576447,260.4490878173159,75.78107290132982,267.6616534106551,112.30331975866886,-1.4413619992569906,0.008874135323895055,112.30331975866886,-1.4413619992569906,0.008874135323895055,112.30331975866886,-1.4413619992569906,0.008874135323895055,112.30331975866886,-1.4413619992569906,0.008874135323895055,27.0,38.34465859821104,1.0641600484784964E9,0.0,NaN,0.0,0.0,0.0,0.0,0.0,0.0,0.0,8.089317277872338,15275.456733241954,39434.25577574688,198.58060271775508,1859944.8556959839,0.6635760337842216,0.2281548552400681,18.0,188.0,661.3495,-434.85718
Finger1,62.179717485782355,149.18564153896904,98.10887937675787,152.69020627304354,163.85080004673216,8.08218379480195,-3.8728262023939806,163.85080004673216,8.08218379480195,-3.8728262023939806,163.85080004673216,8.08218379480195,-3.8728262023939806,163.85080004673216,8.08218379480195,-3.8728262023939806,16.0,18.73363693166811,2.9006182153659042E7,0.0,0.0,0.0,1.0,0.8297980807339724,6400467.452899126,11.0,16.501030171796025,5.395490671195974E7,-13.412901051162802,5495.491329587439,22575.21109131285,150.25049447942874,481383.21219847625,-0.32234590669081653,-0.184020292664687,8.0,86.0,307.56226,-370.50476
Finger1,53.28088433583675,203.197941560159,66.96437704752049,228.5532476241183,0.0,0.0,0.0,133.69003452278594,-6.762968744414366,0.1977308887993212,133.69003452278594,-6.762968744414366,0.1977308887993212,133.69003452278594,-6.762968744414366,0.1977308887993212,1.0,0.8855542688891621,773796.3920060415,0.0,0.0,437782.8530155921,4.0,4.858345850343689,4.4013272213127546E7,0.0,0.0,0.0,-2.9721770753846077,4218.7111367473235,57600.13155115641,240.00027406475272,555888.3807569547,-0.44703586967921316,0.897733133356935,1.0,39.0,555.20325,-261.33728
Finger1,50.13509739525484,265.58687313124295,109.62326364882128,299.21173175178524,226.9715568628294,-11.377506369952386,0.20157647644545218,226.9715568628294,-11.377506369952386,0.20157647644545218,226.9715568628294,-11.377506369952386,0.20157647644545218,226.9715568628294,-11.377506369952386,0.20157647644545218,7.0,11.467998881540613,7.590230086436267E7,0.0,NaN,0.0,0.0,0.8160998602632088,1.9133399731378816E7,0.0,0.0,0.0,35.470053310344824,7130.2257007486205,85641.88219568449,292.64634321256176,1238985.0913464825,-0.4246332183478847,0.9709578331637962,3.0,58.0,646.7468,-362.0453
Finger1,59.2725743093745,197.78300409696521,108.22683678644434,220.55243872142623,199.47167194835134,-30.717378571493214,0.47731618796289865,115.66895585863438,37.97786574781372,-3.7061806523188636,199.47167194835134,-30.717378571493214,0.47731618796289865,115.66895585863438,37.97786574781372,-3.7061806523188636,0.0,0.8147328144147225,216570.3835300122,0.0,0.0,614832.4910675025,0.0,0.0,0.0,0.0,0.0,0.0,272.2679731538461,2056.952531641147,39026.50318136466,197.55126722287724,362188.83717691444,-1.0422068046765731,-0.6680080480476568,1.0,13.0,475.84534,-118.13049
Finger1,73.03483639689912,280.9216131527479,139.7038382598769,302.3892774478138,303.65925759887716,0.0,0.0,303.65925759887716,0.0,0.0,149.36670729205252,57.41137133912764,-6.103345621293933,149.36670729205252,57.41137133912764,-6.103345621293933,1.0,1.0948599683403109,1492230.529197214,0.0,NaN,0.0,1.0,0.8522448891286425,2.3513859775720768E7,0.0,0.0,0.0,251.72805999999994,2493.2581130059875,149686.29576695498,386.8931322302775,585108.0615204807,-1.7130437718619758,-0.2876677563897864,1.0,12.0,740.20386,-315.01465
Finger1,116.71834357144134,256.58184794262183,58.58134748416388,275.1450658657186,208.07747512607887,-3.392786968873189,0.018507161130049493,208.07747512607887,-3.392786968873189,0.018507161130049493,208.07747512607887,-3.392786968873189,0.018507161130049493,208.07747512607887,-3.392786968873189,0.018507161130049493,30.0,37.89503432902175,8.97229593130759E8,0.0,0.0,698184.4943779225,1.0,0.8498661008590184,2.039115643074758E7,0.0,0.0,0.0,-21.37379387705882,16677.44273419808,60218.18234312202,245.3939329794484,2591965.046805784,0.6832034545853611,-0.2995812408334085,15.0,170.0,656.2134,-646.6461
Finger1,56.022756813613874,174.79549481696944,45.17029687226467,212.6963797671731,13.372860518087009,20.579005326422873,-0.7816697754316877,13.372860518087009,20.579005326422873,-0.7816697754316877,13.372860518087009,20.579005326422873,-0.7816697754316877,13.372860518087009,20.579005326422873,-0.7816697754316877,1.0,1.652675570943904,4081044.9516878575,0.0,0.0,665094.7917582334,0.0,0.0,0.0,0.0,0.0,0.0,69.58923216086956,2547.6273418714795,56827.65868204045,238.38552531989112,351129.33812394546,-1.455757621880594,0.5299970397713875,1.0,23.0,446.64,-175.53406
Finger1,70.43575543761594,270.64864157700447,154.8979112063745,285.3690949036603,154.554935739749,28.001566345380525,-0.3280419188905057,154.554935739749,28.001566345380525,-0.3280419188905057,154.554935739749,28.001566345380525,-0.3280419188905057,154.554935739749,28.001566345380525,-0.3280419188905057,1.0,0.9397642186961923,1897567.1964172795,0.0,0.0,838575.9014964099,0.0,0.0,0.0,0.0,0.0,0.0,358.44856928571426,2874.026738191808,73290.47709996736,270.7221400254648,664015.4865450826,-0.1959677781082294,-0.9341557182668334,1.0,14.0,677.7649,-259.42383
Finger1,107.15196431088636,328.30072026413444,39.51921383125245,355.4776109122834,73.37663980794741,13.390822946052197,-0.2794819688635961,0.0,0.0,0.0,73.37663980794741,13.390822946052197,-0.2794819688635961,0.0,0.0,0.0,3.0,3.8575549005413725,2.5175397289407235E7,0.0,0.0,0.0,0.0,0.0,0.0,0.0,0.0,0.0,62.67394981818181,6294.509906112008,169044.18312313693,411.14983050359746,1420129.2382946247,-1.297822686083807,0.2782339834385882,3.0,33.0,784.01184,-549.2615
Finger1,36.747550297674024,137.36978305309088,50.812289826651124,147.4631075899162,36.99425810049587,-0.12967721916408603,1.368045480403474E-4,36.99425810049587,-0.12967721916408603,1.368045480403474E-4,36.99425810049587,-0.12967721916408603,1.368045480403474E-4,0.0,0.0,0.0,0.0,0.0,0.0,0.0,0.0,0.0,0.0,0.0,0.0,0.0,0.0,0.0,0.0,0.0,0.0,0.0,0.0,0.0,0.0,0.0,0.0,0.0,0.0
Finger1,71.44886751700501,205.67638433967505,48.32210566244098,228.60056564929667,206.99999594869013,-37.24096457713961,2.008162818186946,0.0,0.0,0.0,206.99999594869013,-37.24096457713961,2.008162818186946,206.99999594869013,-37.24096457713961,2.008162818186946,13.0,18.299900363901816,1.9800618459729922E8,0.0,0.0,514147.8243626404,0.0,0.0,0.0,15.0,18.948289688975727,3.37102984742155E8,35.16886948378379,7497.963871455796,28160.441323695497,167.8107306571767,820856.7612592913,0.6509850444477618,1.0272167260899905,9.0,111.0,540.29846,-254.89197
Finger1,61.51051874281503,341.64313165711314,178.5926848620129,372.8952425169079,186.42362948934738,72.06813140435213,-7.880391697029964,186.42362948934738,72.06813140435213,-7.880391697029964,186.42362948934738,72.06813140435213,-7.880391697029964,186.42362948934738,72.06813140435213,-7.880391697029964,1.0,1.330823620299676,886561.080798765,0.0,NaN,0.0,0.0,0.0,0.0,0.0,0.0,0.0,349.60784749999993,3006.10202972648,211658.65022096562,460.0637458232996,871308.9160917761,-1.3087128862471429,-0.586759812899888,1.0,12.0,826.3092,-478.16162
Finger1,18.9158351483849,133.70856744370406,53.549711885324704,162.33728516707964,136.12223200306946,-42.02982014373276,3.643753842466822,63.42747368360824,33.43391934261038,-3.3311101861507666,63.42747368360824,33.43391934261038,-3.3311101861507666,63.42747368360824,33.43391934261038,-3.3311101861507666,1.0,0.914491432445578,110506.74271431357,0.0,0.0,254161.46513960412,1.0,0.8543946941055689,4994383.756682868,0.0,0.0,0.0,175.6192721538461,1267.1812462467906,19015.303156712907,137.8959867317135,157354.95853806773,-1.7005829578615694,0.271795860929255,0.0,13.0,393.36548,19.23523
Finger1,61.922686717507226,220.73367993024473,85.25175000476602,240.5836957262832,83.98902223516109,50.00602866400607,-4.193649158943103,83.98902223516109,50.00602866400607,-4.193649158943103,83.98902223516109,50.00602866400607,-4.193649158943103,83.98902223516109,50.00602866400607,-4.193649158943103,0.0,0.0,0.0,0.0,0.0,749761.0933852515,1.0,0.8294751462524619,1.376296517928591E7,1.0,1.7956230832617808,3.9755574563262835E7,-272.5158695728571,2291.796259382296,53945.302592520515,232.26128087247025,434234.0089451801,-1.398099590456415,0.4780424238647351,1.0,14.0,133.13599,-538.1836
Finger1,55.24000011956982,187.54780120215756,39.14591626229759,220.11369605492007,71.47586917208275,-2.6666034727931702,0.04896943300880319,71.47586917208275,-2.6666034727931702,0.04896943300880319,71.47586917208275,-2.6666034727931702,0.04896943300880319,71.47586917208275,-2.6666034727931702,0.04896943300880319,11.0,16.61209081525018,9.167315551641513E7,0.0,NaN,0.0,0.0,0.0,0.0,0.0,0.0,0.0,-3.3825300762500126,5493.003200769305,30012.678791988204,173.24167741045514,600231.9877977424,1.1285584023375925,0.657250749163341,6.0,80.0,509.78394,-365.77148
Finger1,24.118411482807183,159.9236762240832,38.808200364800584,181.28329717071404,178.7719962544642,0.0,0.0,178.7719962544642,0.0,0.0,0.0,0.0,0.0,178.7719962544642,0.0,0.0,2.0,2.335357808573724,818905.681787379,0.0,0.0,0.0,1.0,0.8351592498438665,6328376.767313006,0.0,0.0,0.0,0.0,0.0,0.0,0.0,0.0,0.0,0.0,0.0,0.0,0.0,0.0
Finger1,24.8707597003482,161.41012255406372,46.73145603699991,195.6801131341419,97.1553466110563,1.6277182407437607,-0.017211058734993012,97.1553466110563,1.6277182407437607,-0.017211058734993012,97.1553466110563,1.6277182407437607,-0.017211058734993012,97.1553466110563,1.6277182407437607,-0.017211058734993012,14.0,19.107981213615215,9.296665055414563E8,0.0,0.0,232312.94305156087,1.0,0.8506616996983428,3110888.813042394,0.0,0.0,0.0,6.738678992173917,13230.746525383543,89850.75429685108,299.75115395416094,2560074.2271422497,2.0541965694596147,1.3676469842159962,14.0,115.0,979.08325,-484.40552
Finger1,35.40526827078561,191.933217909644,74.17472554008276,207.3443546285576,194.3523288925943,-38.465663501786366,1.2652383364167576,194.3523288925943,-38.465663501786366,1.2652383364167576,194.3523288925943,-38.465663501786366,1.2652383364167576,77.24230751979758,46.76320440929652,-4.369337466673258,0.0,0.7372418442653476,170144.13346177075,0.0,0.0,396936.8936573184,0.0,0.0,0.0,0.0,0.0,0.0,248.57060338461537,1811.6105891173015,32232.784597230635,179.53491191751712,298830.8416394819,-1.470027754075276,-0.1719025537258535,1.0,13.0,483.49915,-61.23047
Finger1,68.28255118619664,119.83193389471569,43.45342299441644,133.58466315523128,98.86146583637026,-3.9553596407445184,0.0738567103842469,98.86146583637026,-3.9553596407445184,0.0738567103842469,80.80414991555682,-6.258963321584588,0.19393360985125874,98.86146583637026,-3.9553596407445184,0.0738567103842469,1.0,2.0416584131606723,1495481.9813319722,0.0,0.0,114977.8641124996,5.0,7.578356965730361,2.0082804845902234E7,0.0,0.0,0.0,-36.951782392,3083.4152501783005,16947.522279147535,130.1826496855381,240094.27088903778,1.471704787350312,1.3738385993015987,2.0,50.0,328.2074,-232.53479
Finger1,32.97881204233036,239.13785456544957,93.1960350693833,260.4650753807042,258.22716031598117,0.0,0.0,258.22716031598117,0.0,0.0,258.22716031598117,0.0,0.0,0.0,0.0,0.0,15.0,19.9184048789356,1.0322077467351307E8,0.0,0.0,0.0,1.0,0.831409771951889,1.74057037317074E7,0.0,0.0,0.0,18.664550532142844,8919.921319784928,62924.57958687179,250.847721908874,1309947.9591348346,-0.3830875929154516,0.5793863278569449,7.0,84.0,557.3181,-476.651
Finger1,64.69416088369934,232.65427519481494,72.81654831560952,270.16357785658255,183.5200553720863,-2.639739686550058,0.055411055908425766,183.5200553720863,-2.639739686550058,0.055411055908425766,183.5200553720863,-2.639739686550058,0.055411055908425766,183.5200553720863,-2.639739686550058,0.055411055908425766,4.0,5.028425008339613,6.182899946408627E7,0.0,0.0,850607.7028732816,0.0,0.0,0.0,7.0,10.398573318993272,2.0121277606032032E8,33.58612219444442,5769.864836298366,125984.20430866224,354.9425366290468,1126342.9157415594,-0.9411222240115986,-0.32404473256266253,5.0,36.0,609.38416,-651.6815
Finger1,27.013400144049623,134.28483912676384,54.380048106896304,150.61097844161904,164.43310875029653,6.13124890227482,-5.502765401252873,164.43310875029653,6.13124890227482,-5.502765401252873,164.43310875029653,6.13124890227482,-5.502765401252873,164.43310875029653,6.13124890227482,-5.502765401252873,0.0,0.0,0.0,0.0,0.0,0.0,1.0,0.8501587562801974,5512335.659391139,0.0,0.0,0.0,0.0,0.0,0.0,0.0,0.0,0.0,0.0,0.0,0.0,0.0,0.0
Finger1,47.15775470803716,176.7517116719999,45.82271975853035,205.69584373747873,75.9689886737882,-3.045837737917111,0.03908397128457858,75.9689886737882,-3.045837737917111,0.03908397128457858,75.9689886737882,-3.045837737917111,0.03908397128457858,75.9689886737882,-3.045837737917111,0.03908397128457858,14.0,20.32339151017747,7.856160119590609E7,0.0,0.0,609002.8864817768,1.0,0.822134527230889,9628698.823478006,0.0,0.0,0.0,-29.07892317714286,5042.8916309851575,18022.71194978715,134.24869440626657,461127.97640050855,2.054332619422601,-1.10194296008517,12.0,98.0,224.47815,-455.3009
Finger1,46.73965878418881,192.13971953289894,39.28636671234659,204.43874819153118,34.114714233132986,52.60956312685545,-4.190847074227861,34.114714233132986,52.60956312685545,-4.190847074227861,34.114714233132986,52.60956312685545,-4.190847074227861,34.114714233132986,52.60956312685545,-4.190847074227861,1.0,0.929742230625835,262568.4820648584,0.0,0.0,449859.0807256224,0.0,0.0,0.0,0.0,0.0,0.0,-230.31921507142857,1832.7724903562346,32624.592636327438,180.62279102130893,295475.1522632637,-1.8543016063201272,-0.07853676015510583,0.0,14.0,-22.76001,-474.83826
Finger1,36.22138927439739,91.57052708378163,37.876688922906034,108.47473090884404,20.997864181679347,-0.18299856358680167,8.855716111579176E-4,20.997864181679347,-0.18299856358680167,8.855716111579176E-4,20.997864181679347,-0.18299856358680167,8.855716111579176E-4,20.997864181679347,-0.18299856358680167,8.855716111579176E-4,57.0,77.20162979972866,1.655684225697546E8,0.0,0.3561314319728236,428554.39453564736,0.0,0.0,0.0,0.0,0.0,0.0,-5.750685436666671,8840.150755319348,4834.168796697608,69.5281870660929,430457.65431138966,2.5293270045243785,0.44674682043068514,39.0,351.0,262.34436,-229.51355
Finger1,27.198722944481286,84.6768814400915,47.33052005076513,89.21808453008846,66.73357988007217,-1.2748091392419596,0.022560273673477682,66.73357988007217,-1.2748091392419596,0.022560273673477682,66.73357988007217,-1.2748091392419596,0.022560273673477682,66.73357988007217,-1.2748091392419596,0.022560273673477682,7.0,9.254072153077194,8.593342294476311E7,0.0,0.3383954239264252,524256.9997732492,1.0,1.864392538521783,1621719.9560755815,0.0,0.0,0.0,24.3451261109589,4386.958875989939,18340.238699930007,135.42613743266108,341043.9185688606,-0.9675747997631223,-0.06649340382291506,7.0,73.0,262.04224,-250.66223
Finger1,48.4582449132121,182.7787377664222,80.38265621734564,198.91214702432444,85.95090869843102,40.43889647302194,-3.7868610946242356,85.95090869843102,40.43889647302194,-3.7868610946242356,85.95090869843102,40.43889647302194,-3.7868610946242356,85.95090869843102,40.43889647302194,-3.7868610946242356,0.0,0.8072267690202274,617337.0700833349,0.0,0.0,442727.63004039606,1.0,0.8368998220106995,9860351.469294382,0.0,0.0,0.0,263.5993376923077,1810.1360273290688,19768.146428721837,140.5992404983819,286945.0526666174,-1.8380679708576564,0.013104857375564938,0.0,13.0,441.3025,91.14075
Finger1,48.13711621298882,181.723016794595,109.30605730435988,207.48782622585856,183.0730069685191,-37.7182555322201,2.127148185954738,186.9319284624288,-6.648994195170218,0.11437102153856715,186.9319284624288,-6.648994195170218,0.11437102153856715,186.9319284624288,-6.648994195170218,0.11437102153856715,6.0,9.486538588455954,2.9221756173208382E7,0.0,0.0,470351.15729511034,1.0,0.8530547615669611,9914941.107249314,0.0,0.0,0.0,43.08144642857143,6745.597742470738,71219.27086201851,266.86938914386286,1000239.8121182452,-1.2583509729830502,0.33232568029085396,5.0,56.0,547.348,-365.57007
Finger1,79.3942159492838,187.87912908690308,76.76541814597375,207.34778544465794,38.1800701809218,16.829878099330756,-0.6307025629149567,38.1800701809218,16.829878099330756,-0.6307025629149567,38.1800701809218,16.829878099330756,-0.6307025629149567,38.1800701809218,16.829878099330756,-0.6307025629149567,2.0,2.4541162675366284,528281.0830048529,0.0,0.0,312739.9488846648,0.0,0.0,0.0,0.0,0.0,0.0,108.48999093636361,2639.407199496065,56350.67055634846,237.3829618071787,374288.4877803367,-1.3196970341376817,0.11869175810936236,1.0,22.0,509.68323,-253.48206
Finger1,28.89710110005852,132.51006561899823,36.877231785684266,154.37170793856214,45.89755555162469,0.2459874243665645,-1.4205843919284922E-5,45.89755555162469,0.2459874243665645,-1.4205843919284922E-5,45.89755555162469,0.2459874243665645,-1.4205843919284922E-5,45.89755555162469,0.2459874243665645,-1.4205843919284922E-5,28.0,37.22852609366959,4.169055174475059E8,0.0,0.3342439391422198,2049528.5314324643,0.0,0.0,0.0,0.0,0.0,0.0,3.7804235938461566,13568.033572860022,29657.79512891202,172.21438711359752,1442026.2218747502,-0.08223147642980244,0.19435454976031638,12.0,195.0,438.8855,-437.97913
Finger1,14.576592693365384,315.6573440971022,95.90776000203464,356.3567169479542,199.14243794238018,-5.915467656913691,0.05070375836612878,199.14243794238018,-5.915467656913691,0.05070375836612878,199.14243794238018,-5.915467656913691,0.05070375836612878,199.14243794238018,-5.915467656913691,0.05070375836612878,13.0,17.93636417542537,1.7080638333737433E8,0.0,NaN,0.0,1.0,0.8242559324729967,2.695213177606645E7,0.0,0.0,0.0,23.568091204800005,11383.276475541163,57174.516094987564,239.11193214682442,1770874.3490518932,1.4761923696816748,0.978255784534308,11.0,125.0,786.52954,-484.80835
Finger1,22.074830160831294,88.47744414457235,76.74622270846159,117.31286959807723,62.84538213111267,0.01128532175894037,-0.006996830359739414,62.84538213111267,0.01128532175894037,-0.006996830359739414,62.84538213111267,0.01128532175894037,-0.006996830359739414,0.0,0.0,0.0,4.0,5.139779166365662,6277307.198241888,0.0,0.0,0.0,0.0,0.0,0.0,0.0,0.0,0.0,-1.2729493920000072,2873.2467590463275,17844.01570137169,133.58149460674443,213240.26891468544,-0.500834063126729,-0.4863548180719624,5.0,50.0,211.99036,-308.97217
Finger1,90.34241685167649,266.58280305559975,49.17904559119816,278.1862625861919,67.59718175420767,1.2658539876111377,0.03970838832566681,67.59718175420767,1.2658539876111377,0.03970838832566681,67.59718175420767,1.2658539876111377,0.03970838832566681,67.59718175420767,1.2658539876111377,0.03970838832566681,7.0,8.50574231974857,6.461643987176218E7,0.0,NaN,0.0,0.0,0.0,0.0,0.0,0.0,0.0,0.0,0.0,0.0,0.0,0.0,0.0,0.0,0.0,0.0,0.0,0.0
Finger1,13.77137353137674,123.47213435967758,105.71095901962667,144.8947107853204,172.49335796747266,-1.823780799329171,-0.07638317963556407,172.49335796747266,-1.823780799329171,-0.07638317963556407,172.49335796747266,-1.823780799329171,-0.07638317963556407,172.49335796747266,-1.823780799329171,-0.07638317963556407,3.0,4.0854664084242085,6.421741403035811E7,0.0,0.3344453630773172,1696412.7733308761,1.0,0.8552947119406608,4658929.708370219,0.0,0.0,0.0,24.10614126666666,3727.9979912587014,81318.6503321164,285.16425149747715,571777.3326524263,-1.4661569973093345,0.29682122787443654,2.0,30.0,486.8225,-364.05945
Finger1,46.84573998353522,159.95124718969825,68.31463746718865,171.43896863420423,31.484332168481046,31.623496922028664,-2.058129998809786,31.484332168481046,31.623496922028664,-2.058129998809786,31.484332168481046,31.623496922028664,-2.058129998809786,31.484332168481046,31.623496922028664,-2.058129998809786,1.0,0.8323152157260317,141756.56877937276,0.0,0.0,183795.693796,1.0,0.864090289737572,7596323.828513634,0.0,0.0,0.0,129.21466843750002,1746.4877471298573,40839.847234564,202.08871129918168,222151.81644976616,-1.3001795576086865,-0.14445779093806937,2.0,16.0,436.4685,-207.4585
Finger1,25.29627022999864,141.53327735157802,59.03145309382935,177.02370640582274,60.24099631963168,34.987306952713936,-2.814262594852675,60.24099631963168,34.987306952713936,-2.814262594852675,60.24099631963168,34.987306952713936,-2.814262594852675,60.24099631963168,34.987306952713936,-2.814262594852675,1.0,0.9581240191757926,142816.1371651998,0.0,0.3551429942399099,1488678.8039454403,0.0,0.0,0.0,0.0,0.0,0.0,196.55517606666666,1720.80564165638,26615.6111433813,163.1429163138299,237866.23145389179,-1.435872415222484,-0.35616878046875067,1.0,15.0,390.64636,-67.27295
Finger1,35.96088940494115,124.56373721814131,50.73588591583339,138.54602221550422,126.10360888540094,-2.0416410951784343,0.024043908937634306,126.10360888540094,-2.0416410951784343,0.024043908937634306,126.10360888540094,-2.0416410951784343,0.024043908937634306,126.10360888540094,-2.0416410951784343,0.024043908937634306,9.0,10.413079004992072,2.889305724214009E7,0.0,0.35841727735688544,758298.7174422734,1.0,0.8238367479714229,4725531.764883756,0.0,0.0,0.0,18.863962679104485,6291.681333119268,41938.83346156961,204.78972987327663,696886.5409654597,-0.978357731453321,0.3033970990366626,5.0,67.0,418.24036,-380.27344
Finger1,29.961156889988967,164.97465761191,61.421070532515444,187.32396722813058,68.04922878089474,40.85149344800794,-3.8631344086867934,68.04922878089474,40.85149344800794,-3.8631344086867934,68.04922878089474,40.85149344800794,-3.8631344086867934,68.04922878089474,40.85149344800794,-3.8631344086867934,0.0,0.9270063158324391,50857.82670578381,0.0,0.0,269725.66894144006,0.0,0.0,0.0,0.0,0.0,0.0,205.97886455384617,1560.0190981303274,28937.09563370209,170.10906981610972,226043.15985180496,-1.3611109412139013,0.014750806913607873,1.0,13.0,479.47083,-54.986572
Finger1,69.91127138453615,174.9825111220848,45.4555106796015,202.53149354953297,-0.055486793957015834,29.587420918322152,-1.322541029820222,-0.055486793957015834,29.587420918322152,-1.322541029820222,-0.055486793957015834,29.587420918322152,-1.322541029820222,-0.055486793957015834,29.587420918322152,-1.322541029820222,1.0,2.0942896479493744,1097127.883834153,0.0,0.35456343337677965,1549121.4731701277,0.0,0.0,0.0,0.0,0.0,0.0,127.445983595,2353.82389494557,51600.88667247412,227.15828550258544,344761.19624548283,-1.5647603256782525,0.23018835398381313,3.0,20.0,483.0963,-166.26892
Finger1,30.20725749265902,104.78575780080033,40.38040100483115,148.5849732988243,102.9882910234669,-2.6834568594193797,0.03675692752172188,102.9882910234669,-2.6834568594193797,0.03675692752172188,102.9882910234669,-2.6834568594193797,0.03675692752172188,102.9882910234669,-2.6834568594193797,0.03675692752172188,1.0,1.744731557433731,5068983.228960621,0.0,0.3503458569028175,1087172.5909025741,7.0,9.549753278878297,1.8663455450361766E7,0.0,0.0,0.0,-28.924399949122808,3797.2148966300033,21411.21140522278,146.325703159844,314234.0009545438,-0.009997490013683663,0.8743679668238268,7.0,57.0,325.48828,-227.80151
Finger1,28.828122138541445,191.35545833438576,69.83391728764255,215.95505676734012,53.56094549133138,3.1037631362820264,-0.002762925279039763,53.56094549133138,3.1037631362820264,-0.002762925279039763,53.56094549133138,3.1037631362820264,-0.002762925279039763,53.56094549133138,3.1037631362820264,-0.002762925279039763,3.0,4.406129981726891,4784666.981517601,0.0,NaN,0.0,0.0,0.0,0.0,0.0,0.0,0.0,71.48030526,2518.433489981242,47382.51320102511,217.67524710224887,340774.8356089525,-0.9516683834468589,0.5745186179341618,4.0,27.0,474.43542,-229.71497
