Klasse,minimumSteigungWert,maximumSteigungWert,minimumSenkungWert,maximumSenkungWert,steigungA,steigungB,steigungC,senkungA,senkungB,senkungC,mittelA,mittelB,mittelC,gesamtA,gesamtB,gesamtC,fftAnfangMedian,fftAnfangMittel,fftAnfangPSD,fftMitteMedian,fftMitteMittel,fftMittePSD,fftEndeMedian,fftEndeMittel,fftEndePSD,fftGesamtMedian,fftGesamtMittel,fftGesamtPSD,mittelwert,signalstärke,varianz,standardabweichung,energie,kurtosis,schiefe,zeroCrossings,laenge,maximalwert,minimalwert
Finger1,21.938887580473065,76.58570070908392,73.21946996931706,88.63543294087945,0.0,0.0,0.0,29.586581824818722,12.954190621717572,-0.7026141290325594,0.0,0.0,0.0,29.31108564944668,-0.044422632843753945,1.6705748300132724E-5,0.0,0.0,0.0,0.0,0.0,0.0,0.0,0.0,0.0,0.0,0.0,0.0,-1.9641457141650136,21953.656272431603,1250.2245385988858,35.35851437205593,782454.8658271232,20.988461070971304,0.9413286457852825,397.0,2521.0,266.7755,-259.021
Finger1,32.8040620630199,123.5211874596533,49.53920036423702,133.0348872530513,101.65750632457929,-3.7616188784765257,0.05169306066346979,83.39466611165568,-0.553161048072699,-1.803478080659171E-4,83.39466611165568,-0.553161048072699,-1.803478080659171E-4,83.39466611165568,-0.553161048072699,-1.803478080659171E-4,2.0,3.840105495388798,1.4398519509370426E7,0.0,0.35634542645264466,741088.5697239218,7.0,9.36299224215168,3.544670751493027E7,0.0,0.0,0.0,4.497133610344832,5147.053858726157,18290.770991108435,135.2433768844465,396296.1638328126,-0.5000669745604638,-0.4731153918984917,6.0,87.0,220.85266,-314.5111
Finger1,50.400428942885604,140.32534750389777,83.97542414091053,175.34284447592643,165.3994921895503,-9.623758460401348,0.22941778465202933,165.3994921895503,-9.623758460401348,0.22941778465202933,165.3994921895503,-9.623758460401348,0.22941778465202933,165.3994921895503,-9.623758460401348,0.22941778465202933,1.0,1.3390207284973936,114963.27210858701,0.0,0.3528444813867776,1633054.4689662217,3.0,5.0468050162004605,4426111.975014698,0.0,0.0,0.0,38.757324030303,3001.378233236432,41230.48197709186,203.0529043798484,337225.20734626753,-1.3975617271001575,0.26245539703975646,2.0,33.0,364.16016,-222.46399
Finger1,100.04781760733871,193.80186241310355,85.844540565352,208.4984986842291,95.76874737008939,35.68408745480417,-2.624917184278587,95.76874737008939,35.68408745480417,-2.624917184278587,95.76874737008939,35.68408745480417,-2.624917184278587,95.76874737008939,35.68408745480417,-2.624917184278587,1.0,0.8539218940958361,127220.3734737637,0.0,0.3343792810604085,3798003.9742604713,0.0,0.0,0.0,0.0,0.0,0.0,281.1297588666667,2519.0694522207314,37365.75964672973,193.30224946112173,453310.30941865954,-0.4937610645808723,-0.8856087053337219,1.0,15.0,469.0979,-161.73706
Finger1,35.32852138480839,89.22828672635275,30.89737438739553,118.64380245082431,109.6322605812245,-1.2999226828320474,0.007248501362230209,109.6322605812245,-1.2999226828320474,0.007248501362230209,109.6322605812245,-1.2999226828320474,0.007248501362230209,0.0,0.0,0.0,0.0,0.0,0.0,0.0,0.3537804971771565,510988.9158974163,7.0,9.799047252984588,5.7199542500363104E7,0.0,0.0,0.0,-29.823592876075942,5824.62791235215,27586.626550331843,166.09222302784633,560417.9790162651,-0.8777115800046174,-0.13476869847269288,7.0,79.0,285.5072,-359.22546
Finger1,53.652175409243384,123.02308661185624,68.02971634890153,151.8693092200013,160.55061987319402,1.7499341881280088,-5.154799844315676,160.55061987319402,1.7499341881280088,-5.154799844315676,160.55061987319402,1.7499341881280088,-5.154799844315676,160.55061987319402,1.7499341881280088,-5.154799844315676,0.0,0.8036392772432801,379593.27192709286,0.0,0.0,0.0,0.0,0.0,0.0,0.0,0.0,0.0,-28.48874596153847,2507.397628918059,40839.62914381914,202.08817170685458,267896.9103242012,-1.5469502261958423,-0.23100754078514965,1.0,26.0,232.7362,-337.0697
Finger1,65.53307698294844,190.76527937872086,57.267106666378474,203.67608615260755,56.36726028086275,24.586184884238037,0.03442931816655914,42.72463391988981,43.59034346940251,-3.1566540272229062,42.72463391988981,43.59034346940251,-3.1566540272229062,42.72463391988981,43.59034346940251,-3.1566540272229062,1.0,1.0384280180609289,1375913.0558941523,0.0,0.0,450534.78486845444,1.0,0.8360782051465018,9945515.453545205,0.0,0.0,0.0,-242.84057493,2013.851735881618,25402.761859172057,159.38243899241866,315640.87945162033,-1.5369343898233154,0.005020022080943943,1.0,15.0,0.70495605,-474.63684
Finger1,34.579997223210896,145.8048633490824,86.67551335482739,145.8715554217146,105.75287991026289,-4.86432159004606,0.13357186780142527,105.75287991026289,-4.86432159004606,0.13357186780142527,105.75287991026289,-4.86432159004606,0.13357186780142527,105.75287991026289,-4.86432159004606,0.13357186780142527,2.0,3.8233802843758693,3.5996845698454686E7,0.0,0.0,0.0,1.0,0.8347231312648539,6234429.26576379,0.0,0.0,0.0,13.177642520000003,3179.5105218733966,33380.28696186185,182.7027283919478,320058.2567083071,-0.8435326644429124,-0.7520797576388549,2.0,40.0,227.90222,-358.92334
Finger1,50.53568599500596,121.37708182829365,57.46644631363101,131.19110302326604,142.8925520942156,7.771867226701488,-5.306549523035528,78.51731055413256,-6.101707358817265,0.33363881965630426,78.51731055413256,-6.101707358817265,0.33363881965630426,78.51731055413256,-6.101707358817265,0.33363881965630426,0.0,0.0,0.0,0.0,0.3595778936056676,609937.3891640307,0.0,0.0,0.0,0.0,0.0,0.0,0.0,0.0,0.0,0.0,0.0,0.0,0.0,0.0,0.0,0.0,0.0
Finger1,29.7965620838909,154.9522413396102,40.280471214438606,170.40254253885686,160.38132309213725,-47.49939557025215,4.051651476844235,160.38132309213725,-47.49939557025215,4.051651476844235,160.38132309213725,-47.49939557025215,4.051651476844235,160.38132309213725,-47.49939557025215,4.051651476844235,1.0,1.076907453227642,544821.6470746401,0.0,0.3565134660254594,1193786.1109765398,0.0,0.0,0.0,0.0,0.0,0.0,-196.77715206875,1741.8152703928845,22347.087984634796,149.48942432371194,239215.8667741031,-1.5756777918703555,-0.034855136495962794,1.0,16.0,22.76001,-415.82336
Finger1,103.60896318223311,234.67568794522506,69.16614615623463,249.61619545523212,98.297422488449,-3.189848171946508,0.05274163518345065,98.297422488449,-3.189848171946508,0.05274163518345065,98.297422488449,-3.189848171946508,0.05274163518345065,98.297422488449,-3.189848171946508,0.05274163518345065,11.0,16.478093709195036,3.2208306064111435E8,0.0,NaN,0.0,0.0,0.81171175280638,1.5273478015313178E7,0.0,0.0,0.0,-30.5897541060241,7175.020887500721,39810.16766856073,199.5248547639134,851911.5241397092,-0.12520160644372647,-0.5899644197344225,6.0,83.0,266.37268,-537.57935
Finger1,29.54848292469156,115.44301970947846,83.45266214501538,140.88270016516887,135.1088874408897,-5.329182856132718,0.11776834409368098,135.1088874408897,-5.329182856132718,0.11776834409368098,135.1088874408897,-5.329182856132718,0.11776834409368098,135.1088874408897,-5.329182856132718,0.11776834409368098,3.0,4.117341349135771,3.766679461740122E7,0.0,0.0,0.0,0.0,0.0,0.0,0.0,0.0,0.0,22.238697808823538,3079.550175200612,41603.42325331627,203.96917231120068,343416.245714056,-1.1884927521072632,-0.1283396632880688,2.0,34.0,338.07678,-340.6952
Finger1,68.11581757656184,110.38233464311557,49.17875308926237,138.49236692117063,75.67085124841117,-2.767991929932677,0.09179628188741829,0.0,0.0,0.0,75.67085124841117,-2.767991929932677,0.09179628188741829,75.67085124841117,-2.767991929932677,0.09179628188741829,0.0,0.7984458271561554,80608.78358261762,1.0,0.8293496061450109,5727547.60305752,5.0,7.857281079710804,4.827298819760954E7,0.0,0.0,0.0,-18.03068167450981,4117.758870269413,30416.253596226936,174.40256189697138,398599.4932284748,-0.7677113619584763,0.7326804433186327,2.0,51.0,341.9037,-247.8424
Finger1,27.7562670114755,181.96171250685055,44.59515602501989,202.83175083189656,215.64236704265807,-3.429901123046875,-3.429903030395508,51.79459106311322,52.30745113970937,-4.866987823215204,51.79459106311322,52.30745113970937,-4.866987823215204,51.79459106311322,52.30745113970937,-4.866987823215204,2.0,1.9756452975917023,31512.298678333562,0.0,0.0,242221.4951296009,1.0,0.8413839210386508,8718834.64266401,0.0,0.0,0.0,200.62584379230768,1589.7687881458685,41216.60933692681,203.01874134406117,255414.43230408744,-1.6931809234612132,0.25788805949267923,2.0,13.0,502.23083,-48.54126
Finger1,40.69419818522588,137.5880508656712,55.90881410472379,168.8599025504655,85.6480978466551,11.311037306417376,-0.6861656532371594,85.6480978466551,11.311037306417376,-0.6861656532371594,85.6480978466551,11.311037306417376,-0.6861656532371594,85.6480978466551,11.311037306417376,-0.6861656532371594,1.0,0.9152998523502452,509387.9948756887,0.0,0.0,256094.43621390755,2.0,2.770251254355039,1180212.2229341578,0.0,0.0,0.0,-45.92764647619048,2204.632465193237,48707.98020081497,220.6988450373381,258961.39968332494,-1.4168561181340138,-0.09301797876924084,2.0,21.0,242.7063,-412.5
Finger1,22.310892836677105,129.35298671836995,58.86406341738283,160.02174170503625,0.0,0.0,0.0,0.0,0.0,0.0,0.0,0.0,0.0,0.0,0.0,0.0,1.0,0.9000260134433978,337381.5793416262,0.0,0.3593133920362242,1019465.2878301255,0.0,0.0,0.0,0.0,0.0,0.0,0.0,0.0,0.0,0.0,0.0,0.0,0.0,0.0,0.0,0.0,0.0
Finger1,32.05250505307863,207.6557406281637,82.95924898235764,236.61280931155136,103.62327250372903,49.18656642079793,-5.3771100416113455,103.62327250372903,49.18656642079793,-5.3771100416113455,103.62327250372903,49.18656642079793,-5.3771100416113455,103.62327250372903,49.18656642079793,-5.3771100416113455,1.0,1.2004358832405175,127069.36028103263,0.0,NaN,0.0,1.0,0.8503024689605416,1.271829901971993E7,0.0,0.0,0.0,215.94314766666665,1768.974973798296,68627.38048771181,261.9682814535222,318921.77038248646,-1.544456951990061,-0.13480723842066794,1.0,12.0,573.1293,-199.9054
Finger1,46.10855403764384,120.76645526084472,54.22466932297622,144.9621084363359,114.61710666125884,-3.078789496847179,0.05616482836261216,114.61710666125884,-3.078789496847179,0.05616482836261216,114.61710666125884,-3.078789496847179,0.05616482836261216,114.61710666125884,-3.078789496847179,0.05616482836261216,0.0,0.0,0.0,0.0,0.35506142850277866,849772.1807684532,0.0,0.0,0.0,0.0,0.0,0.0,-25.6340618076923,2289.748864566989,35527.83313345901,188.48828380952227,233489.28707650784,-1.29185617449635,-0.2917182786579794,2.0,26.0,239.78577,-346.73767
Finger1,31.052682288787256,184.1724439575818,76.93778672795399,218.66637218024505,187.7859826461305,-51.5840763196785,3.9137993626728047,122.37898214537506,-0.12481417550952756,-0.0011902889748958145,122.37898214537506,-0.12481417550952756,-0.0011902889748958145,122.37898214537506,-0.12481417550952756,-0.0011902889748958145,3.0,3.8715245201909587,2.9646234829130713E7,0.0,0.0,510543.5748238224,0.0,0.0,0.0,0.0,0.0,0.0,-7.461279294117649,4075.951511139221,72564.35918975362,269.3777258604609,594745.8796439319,-1.2175748702065807,-0.24302327862336823,2.0,34.0,360.9375,-507.46765
Finger1,73.75643401397724,164.92078267512355,64.94843265927726,184.231743303867,168.8407176277201,-35.536190254018834,3.113311106632878,168.8407176277201,-35.536190254018834,3.113311106632878,168.8407176277201,-35.536190254018834,3.113311106632878,168.8407176277201,-35.536190254018834,3.113311106632878,1.0,0.8695284886789751,733026.8254378671,0.0,NaN,0.0,0.0,0.0,0.0,0.0,0.0,0.0,-214.55453599999998,1612.7954306761924,20838.536537698514,144.35559060077483,223374.66235349217,-1.7484005872600248,-0.02701449825489635,0.0,13.0,-10.775757,-395.17822
Finger1,111.04814914528927,238.27409349644503,91.34151918344746,265.1063186399516,90.98821175416106,-3.1224467779498752,0.0934753010566256,90.98821175416106,-3.1224467779498752,0.0934753010566256,90.98821175416106,-3.1224467779498752,0.0934753010566256,90.98821175416106,-3.1224467779498752,0.0934753010566256,11.0,12.995326013088254,2.05272095985667E7,0.0,0.0,0.0,1.0,0.8299682336106722,2.6224181503446646E7,0.0,0.0,0.0,58.32314375540983,6735.615285254862,61828.54418381611,248.65346203866963,1016904.1505216893,-0.496801275009791,0.15210105874587,5.0,61.0,581.68945,-461.5448
Finger1,49.95542069921081,138.18336007905117,52.99949046916598,147.31103097885168,80.12341736185186,-1.7337724894351183,0.012633220850943927,80.12341736185186,-1.7337724894351183,0.012633220850943927,80.12341736185186,-1.7337724894351183,0.012633220850943927,80.12341736185186,-1.7337724894351183,0.012633220850943927,0.0,0.0,0.0,0.0,0.0,0.0,0.0,0.0,0.0,0.0,0.0,0.0,-13.28044014006802,6413.415847126317,11791.350164304113,108.58798351707298,443051.63323341,1.2537059228702088,0.7330452844208848,8.0,147.0,345.52917,-207.35779
Finger1,85.69011237169012,246.6247782496608,64.85542502138408,281.24905216521876,252.85468655722997,-63.48602399102788,5.790173044633036,252.85468655722997,-63.48602399102788,5.790173044633036,252.85468655722997,-63.48602399102788,5.790173044633036,252.85468655722997,-63.48602399102788,5.790173044633036,2.0,3.817032386922905,2.478536562092746E7,0.0,0.0,924016.8079878849,0.0,0.0,0.0,0.0,0.0,0.0,-49.58610478125,4834.883952656072,110870.15352989476,332.9717007943689,886025.8712680078,-1.3228489723875425,-0.2983227834723864,2.0,32.0,391.75415,-630.93567
Finger1,58.4784756819925,168.21445806687862,52.46961519717497,197.62387317586908,42.943180856438744,40.63496158996361,-2.796579997512982,42.943180856438744,40.63496158996361,-2.796579997512982,42.943180856438744,40.63496158996361,-2.796579997512982,42.943180856438744,40.63496158996361,-2.796579997512982,1.0,1.1287238833673288,833149.3322173719,0.0,0.35433759788649355,1788010.0453582122,1.0,0.8423121222755353,8642389.53228773,0.0,0.0,0.0,-230.93605187499998,2095.5270880119892,27984.877356996625,167.28681166486683,323562.00143856206,-1.4388669998129375,0.25448514168708586,1.0,16.0,47.332764,-443.61877
Finger1,31.391544067642094,171.55323176799564,75.34349650496655,195.74371676941755,173.42023268133153,-37.457017287034034,1.741985806018235,173.42023268133153,-37.457017287034034,1.741985806018235,82.69650947461253,39.85475432531774,-3.869174425762388,82.69650947461253,39.85475432531774,-3.869174425762388,3.0,2.0310793314931126,32688.81253394823,0.0,0.0,420629.5158385849,1.0,0.846159760534349,8725727.11970287,0.0,0.0,0.0,214.329881,1668.7620846261545,34715.669581152,186.3214147143371,254580.7738850281,-1.6105853199208222,-0.24999661803185375,1.0,13.0,454.89807,-65.460205
Finger1,40.36527134896529,149.05650760432755,44.85492676477111,159.03750602574826,61.00899238294335,-0.18041644711524896,0.059794775939017164,61.00899238294335,-0.18041644711524896,0.059794775939017164,61.00899238294335,-0.18041644711524896,0.059794775939017164,61.00899238294335,-0.18041644711524896,0.059794775939017164,3.0,4.0709028104628,6081452.093435576,0.0,0.3583152596786185,1030858.196185865,1.0,0.8366272892108239,6492755.234639156,0.0,0.0,0.0,-45.266724451515145,2602.089101912706,33197.57810659426,182.2020255282423,284034.14182435564,-1.0678477074008055,-0.3973907359819186,2.0,33.0,213.90381,-380.9784
Finger1,69.72726010910144,277.1327613092551,44.44926722563004,294.22814277896856,102.71932359164566,2.926879611972822,0.006526893854582383,102.71932359164566,2.926879611972822,0.006526893854582383,102.71932359164566,2.926879611972822,0.006526893854582383,102.71932359164566,2.926879611972822,0.006526893854582383,3.0,4.135841503780977,1.8368334758295868E7,0.0,0.0,1019287.657188973,1.0,0.843409031698482,2.2812550556703493E7,0.0,0.0,0.0,-60.70678719999999,5425.990238258569,116613.66374753647,341.4874283887131,1045026.0948174224,-1.3203665209579913,-0.3126579522422065,1.0,35.0,386.1145,-655.4077
Finger1,27.10366649618464,156.11616725931046,78.29637359554653,163.95183391062739,175.03573068234346,11.271588815483483,-3.792667225292689,175.03573068234346,11.271588815483483,-3.792667225292689,175.03573068234346,11.271588815483483,-3.792667225292689,0.0,0.0,0.0,0.0,0.7376271028502467,152318.98273910253,0.0,0.33444653691515597,2261796.5860332744,0.0,0.0,0.0,0.0,0.0,0.0,228.71459880000003,1875.436669980014,21919.267971379355,148.05157199901444,269858.65738603036,-0.7144745279703724,-0.7456509638739893,1.0,15.0,392.4591,-96.98181
Finger1,55.2872060917816,112.09941749581313,94.91981583472179,132.4634639095548,139.18150791059963,0.8251245232247584,-3.4177047458450716,85.75267395724427,-0.6233382658769742,0.004408740286630658,139.18150791059963,0.8251245232247584,-3.4177047458450716,85.75267395724427,-0.6233382658769742,0.004408740286630658,27.0,36.95895827464609,9.164823273683624E8,0.0,0.3530043605202621,759355.477384696,0.0,0.0,0.0,0.0,0.0,0.0,-9.981864055844154,11722.346905774399,29849.72245727834,172.77072222248287,1142762.6115887153,-0.21080421603433175,0.6447646743655487,12.0,154.0,448.65417,-301.51978
Finger1,115.99337006153402,238.67126149883117,93.91058872116685,269.20484439269603,112.92244138783417,50.62778960944331,-4.444629106327511,112.92244138783417,50.62778960944331,-4.444629106327511,112.92244138783417,50.62778960944331,-4.444629106327511,0.0,0.0,0.0,0.0,0.0,0.0,0.0,0.0,765363.3273622117,1.0,0.8421316925257788,1.8226482881513923E7,1.0,1.6656601894235252,3.215810482103988E7,276.98575676923076,2527.950409594772,86408.83153764551,293.9537915007145,538164.7727107967,-1.4938494465227663,-0.3959695344636786,1.0,13.0,631.94275,-211.68823
Finger1,41.26393051238493,131.6430235523035,49.72047244417595,153.0201116906976,28.454553656407597,9.029354683091356,-0.22333497919238354,28.454553656407597,9.029354683091356,-0.22333497919238354,28.454553656407597,9.029354683091356,-0.22333497919238354,28.454553656407597,9.029354683091356,-0.22333497919238354,5.0,5.662398338334298,6556058.449124791,0.0,0.0,0.0,0.0,0.0,0.0,0.0,0.0,0.0,80.56945850303032,3151.5473816573435,36653.28541152271,191.4504776999073,350673.96109137224,-1.2397911605909908,-0.2252132703300586,3.0,33.0,353.3844,-271.6095
Finger1,39.98386227193038,149.62461383976188,38.83757074464117,155.40793321656182,27.794909432598104,-0.07634329384048111,5.556261829605763E-5,27.794909432598104,-0.07634329384048111,5.556261829605763E-5,27.794909432598104,-0.07634329384048111,5.556261829605763E-5,27.794909432598104,-0.07634329384048111,5.556261829605763E-5,0.0,0.0,0.0,0.0,0.3587884361387218,1023459.810230161,1.0,0.8388214368258115,6605575.098155911,0.0,0.0,0.0,0.0,0.0,0.0,0.0,0.0,0.0,0.0,0.0,0.0,0.0,0.0
Finger1,20.421215354992384,65.89166961803097,47.41089807834244,72.76317663583171,74.47856896696067,-1.170669883419075,0.007238207740864977,74.47856896696067,-1.170669883419075,0.007238207740864977,74.47856896696067,-1.170669883419075,0.007238207740864977,74.47856896696067,-1.170669883419075,0.007238207740864977,2.0,3.629170124102669,2.03236567121806E7,14.0,19.124519451764538,1.2223311381054635E8,3.0,3.8219093693420954,5570247.742017166,0.0,0.0,0.0,7.520751600060606,7189.780621451218,10132.298381941016,100.65931840590326,418933.0263617992,-0.43300172153760563,-0.009502372037632278,11.0,165.0,249.15161,-224.67957
Finger1,70.81624617625094,137.3982885510599,57.75350937864904,155.67014164038687,67.7554011701676,-1.5875172055973898,0.013352288467866624,67.7554011701676,-1.5875172055973898,0.013352288467866624,67.7554011701676,-1.5875172055973898,0.013352288467866624,67.7554011701676,-1.5875172055973898,0.013352288467866624,14.0,19.3763170233024,6.020424049357663E7,0.0,0.0,207849.50579652248,0.0,0.0,0.0,0.0,0.0,0.0,2.3461493405517246,6679.517101817947,13588.223911573428,116.56853739999241,506598.92453845707,1.4546054066054293,-0.12560759977894442,17.0,145.0,320.25146,-372.92175
Finger1,29.50797905605346,143.83770454493393,74.71793189443848,151.6256127539355,73.56598910203093,28.802727016515178,-2.348243079647883,73.56598910203093,28.802727016515178,-2.348243079647883,73.56598910203093,28.802727016515178,-2.348243079647883,73.56598910203093,28.802727016515178,-2.348243079647883,3.0,1.9677402355487348,27182.743167069028,0.0,0.3336804766679382,2016139.8331996473,1.0,0.8364443951952627,6231198.84706583,0.0,0.0,0.0,197.50854456666667,1744.309448157618,25627.83361976693,160.08695643233065,230703.16336882883,-0.6115655112183878,-0.9011143394965583,1.0,15.0,352.98157,-148.74573
Finger1,43.87363759180905,166.51119136031605,33.914638361731505,195.88938277582773,35.07882304561599,46.111663004693526,-3.3886407237038796,35.07882304561599,46.111663004693526,-3.3886407237038796,35.07882304561599,46.111663004693526,-3.3886407237038796,35.07882304561599,46.111663004693526,-3.3886407237038796,0.0,0.0,0.0,0.0,0.3526832099836877,1756794.773594256,1.0,0.8404238043909689,8738258.958887674,0.0,0.0,0.0,220.69152778666665,1928.4366269684176,31096.17361387391,176.34107182920803,298340.9190130414,-1.729431436648408,-0.14617168611463766,1.0,15.0,438.48267,-11.682129
Finger1,16.643441807782374,63.75979442791575,32.313016040492585,96.05082247908416,22.302588182236207,-0.04203551832263153,2.4181790455480657E-5,22.302588182236207,-0.04203551832263153,2.4181790455480657E-5,0.0,0.0,0.0,22.302588182236207,-0.04203551832263153,2.4181790455480657E-5,0.0,0.0,0.0,0.0,0.33804261628482585,690859.9593702741,15.0,18.679065509393066,1.9146530395527586E7,0.0,0.0,0.0,0.0,0.0,0.0,0.0,0.0,0.0,0.0,0.0,0.0,0.0,0.0
Finger1,15.945929857115113,107.03915918686683,40.26614888436801,135.51277795570567,99.61945318965616,-3.4470808973280214,0.038331301026382325,99.61945318965616,-3.4470808973280214,0.038331301026382325,99.61945318965616,-3.4470808973280214,0.038331301026382325,99.61945318965616,-3.4470808973280214,0.038331301026382325,3.0,2.280249079757678,11717.603443878095,0.0,0.0,0.0,0.0,0.0,0.0,0.0,0.0,0.0,10.575632203846167,3366.0264258616844,11510.031371004568,107.2848142609408,223694.7366649427,0.8639595095649191,0.7749888556967265,4.0,78.0,314.10828,-218.03284
Finger1,53.0734690354484,161.59122250268615,49.90441068349982,170.55147379460792,84.35037166880898,18.233172906812058,-1.2277073542974755,84.35037166880898,18.233172906812058,-1.2277073542974755,84.35037166880898,18.233172906812058,-1.2277073542974755,84.35037166880898,18.233172906812058,-1.2277073542974755,3.0,2.2501046582220043,11367.4671459828,0.0,0.0,0.0,0.0,0.0,0.0,0.0,0.0,0.0,-72.06776911111115,2116.524518203326,58602.78591502625,242.08012292426292,276573.92471522465,-1.539942114535476,0.07525565115342799,2.0,18.0,288.52844,-401.2207
Finger1,67.45331475187511,190.15921558408772,76.31473063126262,207.98703299004606,66.91802878387762,-0.9232480136117474,0.0067486503466056,66.91802878387762,-0.9232480136117474,0.0067486503466056,66.91802878387762,-0.9232480136117474,0.0067486503466056,66.91802878387762,-0.9232480136117474,0.0067486503466056,27.0,37.99974052501739,2.290371330036849E8,0.0,0.0,512416.1966895503,1.0,0.8403620015380009,1.090463242349888E7,0.0,0.0,0.0,17.567434911156074,9387.473317296148,19678.030152147505,140.27840230109376,868130.2979243576,0.9923855769238688,0.9985307266331899,13.0,173.0,470.10498,-238.37585
Finger1,31.19175976565682,138.77341289893138,52.892924041589545,147.11020371407335,159.9727034594385,6.728129369355884,-4.823081175622292,159.9727034594385,6.728129369355884,-4.823081175622292,159.9727034594385,6.728129369355884,-4.823081175622292,159.9727034594385,6.728129369355884,-4.823081175622292,26.0,34.768492921749754,3.396867020232174E8,0.0,0.35086832697594217,858353.1918637599,1.0,0.8347749543971841,5790310.422946847,0.0,0.0,0.0,-3.682095258888893,6217.402269217844,10816.142151581565,104.00068341881973,414310.7885709261,1.6378753968646427,-0.9865144190507136,12.0,153.0,221.96045,-346.0327
Finger1,33.46783267458211,130.1790945386917,41.09363679527672,125.29897008583116,66.20129550464503,-3.362373570232556,0.04975904150155991,66.20129550464503,-3.362373570232556,0.04975904150155991,66.20129550464503,-3.362373570232556,0.04975904150155991,66.20129550464503,-3.362373570232556,0.04975904150155991,14.0,19.2283291594253,2.3101463822918702E7,0.0,0.7987036980304191,2966378.8242829205,1.0,0.822949604058491,4760435.997226487,0.0,0.0,0.0,24.8760626404706,3630.477309205293,14409.742134180715,120.04058536253775,316623.2132054392,0.6811853966213874,0.6273276648466726,5.0,85.0,340.49377,-213.29956
Finger1,86.98615340121826,249.60028326826657,89.84895504815007,276.2904567356994,87.21906139608768,40.127957803574645,-0.35239720801877183,87.21906139608768,40.127957803574645,-0.35239720801877183,87.21906139608768,40.127957803574645,-0.35239720801877183,82.00922352151906,58.50217992782518,-4.743249164304153,2.0,2.1511953106040855,70074.84766630697,0.0,0.0,0.0,1.0,0.8247507235032415,1.641019375108335E7,1.0,1.75491662009594,3.70289025149318E7,267.3509845,2587.1064379883496,90430.85424598378,300.7172330379218,552797.0018201168,-1.6022510053857637,-0.24361662925977332,1.0,14.0,645.2362,-188.22327
Finger1,62.82175990320702,149.93374673810484,61.35562533021097,159.98576178065144,103.37256863628147,-16.903154894616023,1.2593913200658733,0.0,0.0,0.0,103.37256863628147,-16.903154894616023,1.2593913200658733,103.37256863628147,-16.903154894616023,1.2593913200658733,2.0,2.0242993025680955,1764524.1067193127,0.0,0.0,80311.21270282891,0.0,0.0,0.0,0.0,0.0,0.0,-13.417664080999995,2961.9265574810847,45111.56430470142,212.3948311628638,343924.8179179228,-0.7233132504041557,0.3632678966059179,4.0,30.0,423.37646,-362.64954
Finger1,34.39740145832644,202.4920663528882,66.94291193786954,241.65764689503894,159.56783573643486,-2.6128701986889027,0.02400194453434068,159.56783573643486,-2.6128701986889027,0.02400194453434068,0.0,0.0,0.0,159.56783573643486,-2.6128701986889027,0.02400194453434068,0.0,0.0,0.0,0.0,0.0,0.0,1.0,0.8420924746575578,1.2137659844976595E7,0.0,0.0,0.0,33.208465009375026,10372.068663481947,57626.257720564005,240.0546973515911,1394904.984055871,-0.7497180613568815,0.3908598571234576,11.0,96.0,579.5746,-388.4308
Finger1,54.682682256059884,190.55059596003574,83.81910481968916,217.59325521885452,190.05308470454509,-32.56819820140504,1.1502828290817888,190.05308470454509,-32.56819820140504,1.1502828290817888,0.0,0.0,0.0,190.05308470454509,-32.56819820140504,1.1502828290817888,0.0,0.7785770680709104,126681.47265333025,0.0,0.0,0.0,0.0,0.0,0.0,0.0,0.0,0.0,267.9840086428572,2154.6837939642405,38495.75089422329,196.20334068058904,378922.4154889858,-1.0354650439826056,-0.46411417546407796,1.0,14.0,527.1057,-114.70642
Finger1,57.296634313287996,145.74915379470605,58.711851801575946,158.70768404088017,77.86331034436,-2.5502499986352234,0.04060452596657238,77.86331034436,-2.5502499986352234,0.04060452596657238,77.86331034436,-2.5502499986352234,0.04060452596657238,77.86331034436,-2.5502499986352234,0.04060452596657238,14.0,19.304494547538265,1.437859055267807E8,0.0,0.0,246702.84352561002,0.0,0.0,0.0,0.0,0.0,0.0,11.252183099999987,4714.9326880807275,19997.049983362318,141.4109259688314,396089.5516657799,0.32675716821499456,-0.7847328498539766,7.0,78.0,239.18152,-364.36157
Finger1,36.74207839163362,156.07299356720634,39.809723923477364,191.26627078114663,0.0,0.0,0.0,154.38781342919924,-29.481738045306315,1.223589079202327,154.38781342919924,-29.481738045306315,1.223589079202327,0.0,0.0,0.0,1.0,1.7626738935688653,1.0724510385056147E7,0.0,0.0,344364.23786931357,0.0,0.0,0.0,0.0,0.0,0.0,25.05877963043477,2542.9775949736177,58639.55223315537,242.15604934247537,328885.48448070005,-1.2530926933896775,0.5427103286174274,1.0,23.0,488.73596,-230.52063
Finger1,48.83600154640386,184.28837396151926,33.95735352475999,188.98149874504767,81.48635389884578,20.036037037477627,-1.2826545947342112,81.48635389884578,20.036037037477627,-1.2826545947342112,81.48635389884578,20.036037037477627,-1.2826545947342112,81.48635389884578,20.036037037477627,-1.2826545947342112,1.0,1.5690608106257433,19696.209528512027,0.0,0.0,167837.85807843608,0.0,0.0,0.0,0.0,0.0,0.0,88.50113831578948,2269.28451800715,61146.22931621001,247.27763610203414,318542.6907909252,-1.1267628076779674,-0.017093961425490935,3.0,19.0,487.62817,-345.52917
Finger1,77.11996372621107,199.2573349641867,53.6798336601658,221.08603523068953,0.0,0.0,0.0,94.58781104325021,-9.902571850482218,1.1382827390090675,94.58781104325021,-9.902571850482218,1.1382827390090675,94.58781104325021,-9.902571850482218,1.1382827390090675,0.0,0.0,0.0,0.0,NaN,0.0,0.0,0.0,0.0,2.0,3.9065553863739755,4.9774118518613994E7,-127.6641844444444,3259.133410091379,49751.16844086119,223.04969948614857,452477.10100956867,-0.5966748919436728,0.2800109564534864,2.0,27.0,319.04297,-494.3756
Finger1,52.82245879590474,163.98878998512623,57.191623746147435,175.97263058819985,82.72782431594601,17.7009624320811,-1.1302393648871885,82.72782431594601,17.7009624320811,-1.1302393648871885,82.72782431594601,17.7009624320811,-1.1302393648871885,82.72782431594601,17.7009624320811,-1.1302393648871885,1.0,1.0211899596036407,300331.62901167053,0.0,0.0,314544.7584804101,0.0,0.0,0.0,0.0,0.0,0.0,-85.05056305263155,2215.0184181690292,55132.63519063421,234.80339688904462,289424.81865815475,-1.5650525016925527,0.022179359018500818,3.0,19.0,254.99268,-418.7439
Finger1,108.77562732790457,217.20795655174524,92.78426877111808,241.3067568559906,125.60055250154846,25.005953354066605,-1.9650151001973697,125.60055250154846,25.005953354066605,-1.9650151001973697,125.60055250154846,25.005953354066605,-1.9650151001973697,125.60055250154846,25.005953354066605,-1.9650151001973697,1.0,1.5733126421411652,51675.81847122823,0.0,NaN,0.0,0.0,0.0,0.0,0.0,0.0,0.0,106.27380246666667,2515.143064255921,107328.26371142907,327.6099261491157,450367.7202905236,-1.5278057529410363,-0.024287934260542994,2.0,15.0,586.1206,-402.22778
Finger1,82.16790667450815,228.3884666169114,77.30707730902064,251.53766827445494,124.34607218727388,29.464268496317175,-2.427272486661927,124.34607218727388,29.464268496317175,-2.427272486661927,124.34607218727388,29.464268496317175,-2.427272486661927,124.34607218727388,29.464268496317175,-2.427272486661927,3.0,2.0211704560510566,103969.74903657474,0.0,NaN,0.0,3.0,2.67248863631168,1.6328141047642704E7,0.0,0.0,0.0,109.71130473333331,2495.2577022040114,112798.78590834163,335.85530501741613,459775.0922288663,-1.4748976457840632,0.08890166079137271,2.0,15.0,624.8932,-390.64636
Finger1,25.252661033463895,268.24920917608074,36.8308741799964,295.35549721502053,31.797032364976303,48.98061037282463,-2.663592341742568,31.797032364976303,48.98061037282463,-2.663592341742568,31.797032364976303,48.98061037282463,-2.663592341742568,31.797032364976303,48.98061037282463,-2.663592341742568,1.0,1.6803389856591373,7638985.755929073,0.0,0.0,0.0,0.0,0.0,0.0,0.0,0.0,0.0,48.13339102499999,3363.18353435002,148499.10062574188,385.35581042166973,718709.3335964455,-0.912444603901545,0.4258644350946466,3.0,20.0,766.1865,-534.3567
Finger1,47.632221142696174,146.90053797093725,90.02070761537529,163.2219299584532,88.2025326185327,27.81682807101032,-2.345224646589056,88.2025326185327,27.81682807101032,-2.345224646589056,88.2025326185327,27.81682807101032,-2.345224646589056,88.2025326185327,27.81682807101032,-2.345224646589056,0.0,0.7437174054187151,534350.9177158495,0.0,0.0,0.0,0.0,0.0,0.0,0.0,0.0,0.0,232.21252546666668,1863.401921328226,18124.765703085588,134.6282500186554,263919.29887115664,-0.9825788778233147,-0.45573078704984543,1.0,15.0,413.10425,-46.829224
Finger1,31.324691369489475,167.50122869685637,30.83210661358295,191.0835870689276,77.97371058826343,-0.7206838522014465,0.013919425058856127,77.97371058826343,-0.7206838522014465,0.013919425058856127,77.97371058826343,-0.7206838522014465,0.013919425058856127,77.97371058826343,-0.7206838522014465,0.013919425058856127,14.0,17.978664477143777,1.2002592308508573E8,0.0,0.0,0.0,0.0,0.0,0.0,15.0,18.71123387411006,1.0308761265150264E8,-0.33569306049383024,6399.788604421626,32525.011525281363,180.3469199218034,653864.5912055899,-0.4387082955185577,0.010062739131677219,8.0,81.0,322.36633,-414.81628
Finger1,26.8446919263549,118.34261726054422,34.731722222308065,123.35415730711857,0.0,0.0,0.0,74.01990528510396,-1.5645033657466882,0.02515443357399927,74.01990528510396,-1.5645033657466882,0.02515443357399927,74.01990528510396,-1.5645033657466882,0.02515443357399927,8.0,9.027624332672675,3.735381506455305E7,0.0,0.0,0.0,0.0,0.0,0.0,17.0,18.64114845487234,8.363294140990219E7,2.1189510689189155,4705.092552943672,19265.950260736947,138.80183810287582,353633.2388320805,-0.779359968833782,0.46205372601999223,6.0,74.0,324.98474,-207.35779
Finger1,15.466664815935673,194.65543205058086,89.02533820575294,235.4698705704601,144.32435959768281,-9.685537242414306,0.20032592258311865,144.32435959768281,-9.685537242414306,0.20032592258311865,144.32435959768281,-9.685537242414306,0.20032592258311865,144.32435959768281,-9.685537242414306,0.20032592258311865,2.0,1.779543408312314,54747.89713401091,0.0,0.0,0.0,0.0,0.0,0.0,7.0,9.764821461615481,3.465534029622275E7,-9.040832135000004,3297.2237832503597,37412.102820431115,193.4220846243549,397985.4523637506,1.824987081385232,1.6510063315048287,6.0,44.0,546.8445,-244.41833
Finger1,88.13058944576447,260.4490878173159,75.78107290132982,267.6616534106551,112.30331975866886,-1.4413619992569906,0.008874135323895055,112.30331975866886,-1.4413619992569906,0.008874135323895055,112.30331975866886,-1.4413619992569906,0.008874135323895055,112.30331975866886,-1.4413619992569906,0.008874135323895055,27.0,38.34465859821104,1.0641600484784964E9,0.0,NaN,0.0,0.0,0.0,0.0,0.0,0.0,0.0,8.089317277872338,15275.456733241954,39434.25577574688,198.58060271775508,1859944.8556959839,0.6635760337842216,0.2281548552400681,18.0,188.0,661.3495,-434.85718
Finger1,62.179717485782355,149.18564153896904,98.10887937675787,152.69020627304354,163.85080004673216,8.08218379480195,-3.8728262023939806,163.85080004673216,8.08218379480195,-3.8728262023939806,163.85080004673216,8.08218379480195,-3.8728262023939806,163.85080004673216,8.08218379480195,-3.8728262023939806,16.0,18.73363693166811,2.9006182153659042E7,0.0,0.0,0.0,1.0,0.8297980807339724,6400467.452899126,11.0,16.501030171796025,5.395490671195974E7,-13.412901051162802,5495.491329587439,22575.21109131285,150.25049447942874,481383.21219847625,-0.32234590669081653,-0.184020292664687,8.0,86.0,307.56226,-370.50476
Finger1,53.28088433583675,203.197941560159,66.96437704752049,228.5532476241183,0.0,0.0,0.0,133.69003452278594,-6.762968744414366,0.1977308887993212,133.69003452278594,-6.762968744414366,0.1977308887993212,133.69003452278594,-6.762968744414366,0.1977308887993212,1.0,0.8855542688891621,773796.3920060415,0.0,0.0,437782.8530155921,4.0,4.858345850343689,4.4013272213127546E7,0.0,0.0,0.0,-2.9721770753846077,4218.7111367473235,57600.13155115641,240.00027406475272,555888.3807569547,-0.44703586967921316,0.897733133356935,1.0,39.0,555.20325,-261.33728
Finger1,50.13509739525484,265.58687313124295,109.62326364882128,299.21173175178524,226.9715568628294,-11.377506369952386,0.20157647644545218,226.9715568628294,-11.377506369952386,0.20157647644545218,226.9715568628294,-11.377506369952386,0.20157647644545218,226.9715568628294,-11.377506369952386,0.20157647644545218,7.0,11.467998881540613,7.590230086436267E7,0.0,NaN,0.0,0.0,0.8160998602632088,1.9133399731378816E7,0.0,0.0,0.0,35.470053310344824,7130.2257007486205,85641.88219568449,292.64634321256176,1238985.0913464825,-0.4246332183478847,0.9709578331637962,3.0,58.0,646.7468,-362.0453
Finger1,59.2725743093745,197.78300409696521,108.22683678644434,220.55243872142623,199.47167194835134,-30.717378571493214,0.47731618796289865,115.66895585863438,37.97786574781372,-3.7061806523188636,199.47167194835134,-30.717378571493214,0.47731618796289865,115.66895585863438,37.97786574781372,-3.7061806523188636,0.0,0.8147328144147225,216570.3835300122,0.0,0.0,614832.4910675025,0.0,0.0,0.0,0.0,0.0,0.0,272.2679731538461,2056.952531641147,39026.50318136466,197.55126722287724,362188.83717691444,-1.0422068046765731,-0.6680080480476568,1.0,13.0,475.84534,-118.13049
Finger1,73.03483639689912,280.9216131527479,139.7038382598769,302.3892774478138,303.65925759887716,0.0,0.0,303.65925759887716,0.0,0.0,149.36670729205252,57.41137133912764,-6.103345621293933,149.36670729205252,57.41137133912764,-6.103345621293933,1.0,1.0948599683403109,1492230.529197214,0.0,NaN,0.0,1.0,0.8522448891286425,2.3513859775720768E7,0.0,0.0,0.0,251.72805999999994,2493.2581130059875,149686.29576695498,386.8931322302775,585108.0615204807,-1.7130437718619758,-0.2876677563897864,1.0,12.0,740.20386,-315.01465
Finger1,116.71834357144134,256.58184794262183,58.58134748416388,275.1450658657186,208.07747512607887,-3.392786968873189,0.018507161130049493,208.07747512607887,-3.392786968873189,0.018507161130049493,208.07747512607887,-3.392786968873189,0.018507161130049493,208.07747512607887,-3.392786968873189,0.018507161130049493,30.0,37.89503432902175,8.97229593130759E8,0.0,0.0,698184.4943779225,1.0,0.8498661008590184,2.039115643074758E7,0.0,0.0,0.0,-21.37379387705882,16677.44273419808,60218.18234312202,245.3939329794484,2591965.046805784,0.6832034545853611,-0.2995812408334085,15.0,170.0,656.2134,-646.6461
Finger1,56.022756813613874,174.79549481696944,45.17029687226467,212.6963797671731,13.372860518087009,20.579005326422873,-0.7816697754316877,13.372860518087009,20.579005326422873,-0.7816697754316877,13.372860518087009,20.579005326422873,-0.7816697754316877,13.372860518087009,20.579005326422873,-0.7816697754316877,1.0,1.652675570943904,4081044.9516878575,0.0,0.0,665094.7917582334,0.0,0.0,0.0,0.0,0.0,0.0,69.58923216086956,2547.6273418714795,56827.65868204045,238.38552531989112,351129.33812394546,-1.455757621880594,0.5299970397713875,1.0,23.0,446.64,-175.53406
Finger1,70.43575543761594,270.64864157700447,154.8979112063745,285.3690949036603,154.554935739749,28.001566345380525,-0.3280419188905057,154.554935739749,28.001566345380525,-0.3280419188905057,154.554935739749,28.001566345380525,-0.3280419188905057,154.554935739749,28.001566345380525,-0.3280419188905057,1.0,0.9397642186961923,1897567.1964172795,0.0,0.0,838575.9014964099,0.0,0.0,0.0,0.0,0.0,0.0,358.44856928571426,2874.026738191808,73290.47709996736,270.7221400254648,664015.4865450826,-0.1959677781082294,-0.9341557182668334,1.0,14.0,677.7649,-259.42383
Finger1,107.15196431088636,328.30072026413444,39.51921383125245,355.4776109122834,73.37663980794741,13.390822946052197,-0.2794819688635961,0.0,0.0,0.0,73.37663980794741,13.390822946052197,-0.2794819688635961,0.0,0.0,0.0,3.0,3.8575549005413725,2.5175397289407235E7,0.0,0.0,0.0,0.0,0.0,0.0,0.0,0.0,0.0,62.67394981818181,6294.509906112008,169044.18312313693,411.14983050359746,1420129.2382946247,-1.297822686083807,0.2782339834385882,3.0,33.0,784.01184,-549.2615
Finger1,36.747550297674024,137.36978305309088,50.812289826651124,147.4631075899162,36.99425810049587,-0.12967721916408603,1.368045480403474E-4,36.99425810049587,-0.12967721916408603,1.368045480403474E-4,36.99425810049587,-0.12967721916408603,1.368045480403474E-4,0.0,0.0,0.0,0.0,0.0,0.0,0.0,0.0,0.0,0.0,0.0,0.0,0.0,0.0,0.0,0.0,0.0,0.0,0.0,0.0,0.0,0.0,0.0,0.0,0.0,0.0
Finger1,71.44886751700501,205.67638433967505,48.32210566244098,228.60056564929667,206.99999594869013,-37.24096457713961,2.008162818186946,0.0,0.0,0.0,206.99999594869013,-37.24096457713961,2.008162818186946,206.99999594869013,-37.24096457713961,2.008162818186946,13.0,18.299900363901816,1.9800618459729922E8,0.0,0.0,514147.8243626404,0.0,0.0,0.0,15.0,18.948289688975727,3.37102984742155E8,35.16886948378379,7497.963871455796,28160.441323695497,167.8107306571767,820856.7612592913,0.6509850444477618,1.0272167260899905,9.0,111.0,540.29846,-254.89197
Finger1,61.51051874281503,341.64313165711314,178.5926848620129,372.8952425169079,186.42362948934738,72.06813140435213,-7.880391697029964,186.42362948934738,72.06813140435213,-7.880391697029964,186.42362948934738,72.06813140435213,-7.880391697029964,186.42362948934738,72.06813140435213,-7.880391697029964,1.0,1.330823620299676,886561.080798765,0.0,NaN,0.0,0.0,0.0,0.0,0.0,0.0,0.0,349.60784749999993,3006.10202972648,211658.65022096562,460.0637458232996,871308.9160917761,-1.3087128862471429,-0.586759812899888,1.0,12.0,826.3092,-478.16162
Finger1,18.9158351483849,133.70856744370406,53.549711885324704,162.33728516707964,136.12223200306946,-42.02982014373276,3.643753842466822,63.42747368360824,33.43391934261038,-3.3311101861507666,63.42747368360824,33.43391934261038,-3.3311101861507666,63.42747368360824,33.43391934261038,-3.3311101861507666,1.0,0.914491432445578,110506.74271431357,0.0,0.0,254161.46513960412,1.0,0.8543946941055689,4994383.756682868,0.0,0.0,0.0,175.6192721538461,1267.1812462467906,19015.303156712907,137.8959867317135,157354.95853806773,-1.7005829578615694,0.271795860929255,0.0,13.0,393.36548,19.23523
Finger1,61.922686717507226,220.73367993024473,85.25175000476602,240.5836957262832,83.98902223516109,50.00602866400607,-4.193649158943103,83.98902223516109,50.00602866400607,-4.193649158943103,83.98902223516109,50.00602866400607,-4.193649158943103,83.98902223516109,50.00602866400607,-4.193649158943103,0.0,0.0,0.0,0.0,0.0,749761.0933852515,1.0,0.8294751462524619,1.376296517928591E7,1.0,1.7956230832617808,3.9755574563262835E7,-272.5158695728571,2291.796259382296,53945.302592520515,232.26128087247025,434234.0089451801,-1.398099590456415,0.4780424238647351,1.0,14.0,133.13599,-538.1836
Finger1,55.24000011956982,187.54780120215756,39.14591626229759,220.11369605492007,71.47586917208275,-2.6666034727931702,0.04896943300880319,71.47586917208275,-2.6666034727931702,0.04896943300880319,71.47586917208275,-2.6666034727931702,0.04896943300880319,71.47586917208275,-2.6666034727931702,0.04896943300880319,11.0,16.61209081525018,9.167315551641513E7,0.0,NaN,0.0,0.0,0.0,0.0,0.0,0.0,0.0,-3.3825300762500126,5493.003200769305,30012.678791988204,173.24167741045514,600231.9877977424,1.1285584023375925,0.657250749163341,6.0,80.0,509.78394,-365.77148
Finger1,24.118411482807183,159.9236762240832,38.808200364800584,181.28329717071404,178.7719962544642,0.0,0.0,178.7719962544642,0.0,0.0,0.0,0.0,0.0,178.7719962544642,0.0,0.0,2.0,2.335357808573724,818905.681787379,0.0,0.0,0.0,1.0,0.8351592498438665,6328376.767313006,0.0,0.0,0.0,0.0,0.0,0.0,0.0,0.0,0.0,0.0,0.0,0.0,0.0,0.0
Finger1,24.8707597003482,161.41012255406372,46.73145603699991,195.6801131341419,97.1553466110563,1.6277182407437607,-0.017211058734993012,97.1553466110563,1.6277182407437607,-0.017211058734993012,97.1553466110563,1.6277182407437607,-0.017211058734993012,97.1553466110563,1.6277182407437607,-0.017211058734993012,14.0,19.107981213615215,9.296665055414563E8,0.0,0.0,232312.94305156087,1.0,0.8506616996983428,3110888.813042394,0.0,0.0,0.0,6.738678992173917,13230.746525383543,89850.75429685108,299.75115395416094,2560074.2271422497,2.0541965694596147,1.3676469842159962,14.0,115.0,979.08325,-484.40552
Finger1,35.40526827078561,191.933217909644,74.17472554008276,207.3443546285576,194.3523288925943,-38.465663501786366,1.2652383364167576,194.3523288925943,-38.465663501786366,1.2652383364167576,194.3523288925943,-38.465663501786366,1.2652383364167576,77.24230751979758,46.76320440929652,-4.369337466673258,0.0,0.7372418442653476,170144.13346177075,0.0,0.0,396936.8936573184,0.0,0.0,0.0,0.0,0.0,0.0,248.57060338461537,1811.6105891173015,32232.784597230635,179.53491191751712,298830.8416394819,-1.470027754075276,-0.1719025537258535,1.0,13.0,483.49915,-61.23047
Finger1,68.28255118619664,119.83193389471569,43.45342299441644,133.58466315523128,98.86146583637026,-3.9553596407445184,0.0738567103842469,98.86146583637026,-3.9553596407445184,0.0738567103842469,80.80414991555682,-6.258963321584588,0.19393360985125874,98.86146583637026,-3.9553596407445184,0.0738567103842469,1.0,2.0416584131606723,1495481.9813319722,0.0,0.0,114977.8641124996,5.0,7.578356965730361,2.0082804845902234E7,0.0,0.0,0.0,-36.951782392,3083.4152501783005,16947.522279147535,130.1826496855381,240094.27088903778,1.471704787350312,1.3738385993015987,2.0,50.0,328.2074,-232.53479
Finger1,32.97881204233036,239.13785456544957,93.1960350693833,260.4650753807042,258.22716031598117,0.0,0.0,258.22716031598117,0.0,0.0,258.22716031598117,0.0,0.0,0.0,0.0,0.0,15.0,19.9184048789356,1.0322077467351307E8,0.0,0.0,0.0,1.0,0.831409771951889,1.74057037317074E7,0.0,0.0,0.0,18.664550532142844,8919.921319784928,62924.57958687179,250.847721908874,1309947.9591348346,-0.3830875929154516,0.5793863278569449,7.0,84.0,557.3181,-476.651
Finger1,64.69416088369934,232.65427519481494,72.81654831560952,270.16357785658255,183.5200553720863,-2.639739686550058,0.055411055908425766,183.5200553720863,-2.639739686550058,0.055411055908425766,183.5200553720863,-2.639739686550058,0.055411055908425766,183.5200553720863,-2.639739686550058,0.055411055908425766,4.0,5.028425008339613,6.182899946408627E7,0.0,0.0,850607.7028732816,0.0,0.0,0.0,7.0,10.398573318993272,2.0121277606032032E8,33.58612219444442,5769.864836298366,125984.20430866224,354.9425366290468,1126342.9157415594,-0.9411222240115986,-0.32404473256266253,5.0,36.0,609.38416,-651.6815
Finger1,27.013400144049623,134.28483912676384,54.380048106896304,150.61097844161904,164.43310875029653,6.13124890227482,-5.502765401252873,164.43310875029653,6.13124890227482,-5.502765401252873,164.43310875029653,6.13124890227482,-5.502765401252873,164.43310875029653,6.13124890227482,-5.502765401252873,0.0,0.0,0.0,0.0,0.0,0.0,1.0,0.8501587562801974,5512335.659391139,0.0,0.0,0.0,0.0,0.0,0.0,0.0,0.0,0.0,0.0,0.0,0.0,0.0,0.0
Finger1,47.15775470803716,176.7517116719999,45.82271975853035,205.69584373747873,75.9689886737882,-3.045837737917111,0.03908397128457858,75.9689886737882,-3.045837737917111,0.03908397128457858,75.9689886737882,-3.045837737917111,0.03908397128457858,75.9689886737882,-3.045837737917111,0.03908397128457858,14.0,20.32339151017747,7.856160119590609E7,0.0,0.0,609002.8864817768,1.0,0.822134527230889,9628698.823478006,0.0,0.0,0.0,-29.07892317714286,5042.8916309851575,18022.71194978715,134.24869440626657,461127.97640050855,2.054332619422601,-1.10194296008517,12.0,98.0,224.47815,-455.3009
Finger1,46.73965878418881,192.13971953289894,39.28636671234659,204.43874819153118,34.114714233132986,52.60956312685545,-4.190847074227861,34.114714233132986,52.60956312685545,-4.190847074227861,34.114714233132986,52.60956312685545,-4.190847074227861,34.114714233132986,52.60956312685545,-4.190847074227861,1.0,0.929742230625835,262568.4820648584,0.0,0.0,449859.0807256224,0.0,0.0,0.0,0.0,0.0,0.0,-230.31921507142857,1832.7724903562346,32624.592636327438,180.62279102130893,295475.1522632637,-1.8543016063201272,-0.07853676015510583,0.0,14.0,-22.76001,-474.83826
Finger1,36.22138927439739,91.57052708378163,37.876688922906034,108.47473090884404,20.997864181679347,-0.18299856358680167,8.855716111579176E-4,20.997864181679347,-0.18299856358680167,8.855716111579176E-4,20.997864181679347,-0.18299856358680167,8.855716111579176E-4,20.997864181679347,-0.18299856358680167,8.855716111579176E-4,57.0,77.20162979972866,1.655684225697546E8,0.0,0.3561314319728236,428554.39453564736,0.0,0.0,0.0,0.0,0.0,0.0,-5.750685436666671,8840.150755319348,4834.168796697608,69.5281870660929,430457.65431138966,2.5293270045243785,0.44674682043068514,39.0,351.0,262.34436,-229.51355
Finger1,27.198722944481286,84.6768814400915,47.33052005076513,89.21808453008846,66.73357988007217,-1.2748091392419596,0.022560273673477682,66.73357988007217,-1.2748091392419596,0.022560273673477682,66.73357988007217,-1.2748091392419596,0.022560273673477682,66.73357988007217,-1.2748091392419596,0.022560273673477682,7.0,9.254072153077194,8.593342294476311E7,0.0,0.3383954239264252,524256.9997732492,1.0,1.864392538521783,1621719.9560755815,0.0,0.0,0.0,24.3451261109589,4386.958875989939,18340.238699930007,135.42613743266108,341043.9185688606,-0.9675747997631223,-0.06649340382291506,7.0,73.0,262.04224,-250.66223
Finger1,48.4582449132121,182.7787377664222,80.38265621734564,198.91214702432444,85.95090869843102,40.43889647302194,-3.7868610946242356,85.95090869843102,40.43889647302194,-3.7868610946242356,85.95090869843102,40.43889647302194,-3.7868610946242356,85.95090869843102,40.43889647302194,-3.7868610946242356,0.0,0.8072267690202274,617337.0700833349,0.0,0.0,442727.63004039606,1.0,0.8368998220106995,9860351.469294382,0.0,0.0,0.0,263.5993376923077,1810.1360273290688,19768.146428721837,140.5992404983819,286945.0526666174,-1.8380679708576564,0.013104857375564938,0.0,13.0,441.3025,91.14075
Finger1,48.13711621298882,181.723016794595,109.30605730435988,207.48782622585856,183.0730069685191,-37.7182555322201,2.127148185954738,186.9319284624288,-6.648994195170218,0.11437102153856715,186.9319284624288,-6.648994195170218,0.11437102153856715,186.9319284624288,-6.648994195170218,0.11437102153856715,6.0,9.486538588455954,2.9221756173208382E7,0.0,0.0,470351.15729511034,1.0,0.8530547615669611,9914941.107249314,0.0,0.0,0.0,43.08144642857143,6745.597742470738,71219.27086201851,266.86938914386286,1000239.8121182452,-1.2583509729830502,0.33232568029085396,5.0,56.0,547.348,-365.57007
Finger1,79.3942159492838,187.87912908690308,76.76541814597375,207.34778544465794,38.1800701809218,16.829878099330756,-0.6307025629149567,38.1800701809218,16.829878099330756,-0.6307025629149567,38.1800701809218,16.829878099330756,-0.6307025629149567,38.1800701809218,16.829878099330756,-0.6307025629149567,2.0,2.4541162675366284,528281.0830048529,0.0,0.0,312739.9488846648,0.0,0.0,0.0,0.0,0.0,0.0,108.48999093636361,2639.407199496065,56350.67055634846,237.3829618071787,374288.4877803367,-1.3196970341376817,0.11869175810936236,1.0,22.0,509.68323,-253.48206
Finger1,28.89710110005852,132.51006561899823,36.877231785684266,154.37170793856214,45.89755555162469,0.2459874243665645,-1.4205843919284922E-5,45.89755555162469,0.2459874243665645,-1.4205843919284922E-5,45.89755555162469,0.2459874243665645,-1.4205843919284922E-5,45.89755555162469,0.2459874243665645,-1.4205843919284922E-5,28.0,37.22852609366959,4.169055174475059E8,0.0,0.3342439391422198,2049528.5314324643,0.0,0.0,0.0,0.0,0.0,0.0,3.7804235938461566,13568.033572860022,29657.79512891202,172.21438711359752,1442026.2218747502,-0.08223147642980244,0.19435454976031638,12.0,195.0,438.8855,-437.97913
Finger1,14.576592693365384,315.6573440971022,95.90776000203464,356.3567169479542,199.14243794238018,-5.915467656913691,0.05070375836612878,199.14243794238018,-5.915467656913691,0.05070375836612878,199.14243794238018,-5.915467656913691,0.05070375836612878,199.14243794238018,-5.915467656913691,0.05070375836612878,13.0,17.93636417542537,1.7080638333737433E8,0.0,NaN,0.0,1.0,0.8242559324729967,2.695213177606645E7,0.0,0.0,0.0,23.568091204800005,11383.276475541163,57174.516094987564,239.11193214682442,1770874.3490518932,1.4761923696816748,0.978255784534308,11.0,125.0,786.52954,-484.80835
Finger1,22.074830160831294,88.47744414457235,76.74622270846159,117.31286959807723,62.84538213111267,0.01128532175894037,-0.006996830359739414,62.84538213111267,0.01128532175894037,-0.006996830359739414,62.84538213111267,0.01128532175894037,-0.006996830359739414,0.0,0.0,0.0,4.0,5.139779166365662,6277307.198241888,0.0,0.0,0.0,0.0,0.0,0.0,0.0,0.0,0.0,-1.2729493920000072,2873.2467590463275,17844.01570137169,133.58149460674443,213240.26891468544,-0.500834063126729,-0.4863548180719624,5.0,50.0,211.99036,-308.97217
Finger1,90.34241685167649,266.58280305559975,49.17904559119816,278.1862625861919,67.59718175420767,1.2658539876111377,0.03970838832566681,67.59718175420767,1.2658539876111377,0.03970838832566681,67.59718175420767,1.2658539876111377,0.03970838832566681,67.59718175420767,1.2658539876111377,0.03970838832566681,7.0,8.50574231974857,6.461643987176218E7,0.0,NaN,0.0,0.0,0.0,0.0,0.0,0.0,0.0,0.0,0.0,0.0,0.0,0.0,0.0,0.0,0.0,0.0,0.0,0.0
Finger1,13.77137353137674,123.47213435967758,105.71095901962667,144.8947107853204,172.49335796747266,-1.823780799329171,-0.07638317963556407,172.49335796747266,-1.823780799329171,-0.07638317963556407,172.49335796747266,-1.823780799329171,-0.07638317963556407,172.49335796747266,-1.823780799329171,-0.07638317963556407,3.0,4.0854664084242085,6.421741403035811E7,0.0,0.3344453630773172,1696412.7733308761,1.0,0.8552947119406608,4658929.708370219,0.0,0.0,0.0,24.10614126666666,3727.9979912587014,81318.6503321164,285.16425149747715,571777.3326524263,-1.4661569973093345,0.29682122787443654,2.0,30.0,486.8225,-364.05945
Finger1,46.84573998353522,159.95124718969825,68.31463746718865,171.43896863420423,31.484332168481046,31.623496922028664,-2.058129998809786,31.484332168481046,31.623496922028664,-2.058129998809786,31.484332168481046,31.623496922028664,-2.058129998809786,31.484332168481046,31.623496922028664,-2.058129998809786,1.0,0.8323152157260317,141756.56877937276,0.0,0.0,183795.693796,1.0,0.864090289737572,7596323.828513634,0.0,0.0,0.0,129.21466843750002,1746.4877471298573,40839.847234564,202.08871129918168,222151.81644976616,-1.3001795576086865,-0.14445779093806937,2.0,16.0,436.4685,-207.4585
Finger1,25.29627022999864,141.53327735157802,59.03145309382935,177.02370640582274,60.24099631963168,34.987306952713936,-2.814262594852675,60.24099631963168,34.987306952713936,-2.814262594852675,60.24099631963168,34.987306952713936,-2.814262594852675,60.24099631963168,34.987306952713936,-2.814262594852675,1.0,0.9581240191757926,142816.1371651998,0.0,0.3551429942399099,1488678.8039454403,0.0,0.0,0.0,0.0,0.0,0.0,196.55517606666666,1720.80564165638,26615.6111433813,163.1429163138299,237866.23145389179,-1.435872415222484,-0.35616878046875067,1.0,15.0,390.64636,-67.27295
Finger1,35.96088940494115,124.56373721814131,50.73588591583339,138.54602221550422,126.10360888540094,-2.0416410951784343,0.024043908937634306,126.10360888540094,-2.0416410951784343,0.024043908937634306,126.10360888540094,-2.0416410951784343,0.024043908937634306,126.10360888540094,-2.0416410951784343,0.024043908937634306,9.0,10.413079004992072,2.889305724214009E7,0.0,0.35841727735688544,758298.7174422734,1.0,0.8238367479714229,4725531.764883756,0.0,0.0,0.0,18.863962679104485,6291.681333119268,41938.83346156961,204.78972987327663,696886.5409654597,-0.978357731453321,0.3033970990366626,5.0,67.0,418.24036,-380.27344
Finger1,29.961156889988967,164.97465761191,61.421070532515444,187.32396722813058,68.04922878089474,40.85149344800794,-3.8631344086867934,68.04922878089474,40.85149344800794,-3.8631344086867934,68.04922878089474,40.85149344800794,-3.8631344086867934,68.04922878089474,40.85149344800794,-3.8631344086867934,0.0,0.9270063158324391,50857.82670578381,0.0,0.0,269725.66894144006,0.0,0.0,0.0,0.0,0.0,0.0,205.97886455384617,1560.0190981303274,28937.09563370209,170.10906981610972,226043.15985180496,-1.3611109412139013,0.014750806913607873,1.0,13.0,479.47083,-54.986572
Finger1,69.91127138453615,174.9825111220848,45.4555106796015,202.53149354953297,-0.055486793957015834,29.587420918322152,-1.322541029820222,-0.055486793957015834,29.587420918322152,-1.322541029820222,-0.055486793957015834,29.587420918322152,-1.322541029820222,-0.055486793957015834,29.587420918322152,-1.322541029820222,1.0,2.0942896479493744,1097127.883834153,0.0,0.35456343337677965,1549121.4731701277,0.0,0.0,0.0,0.0,0.0,0.0,127.445983595,2353.82389494557,51600.88667247412,227.15828550258544,344761.19624548283,-1.5647603256782525,0.23018835398381313,3.0,20.0,483.0963,-166.26892
Finger1,30.20725749265902,104.78575780080033,40.38040100483115,148.5849732988243,102.9882910234669,-2.6834568594193797,0.03675692752172188,102.9882910234669,-2.6834568594193797,0.03675692752172188,102.9882910234669,-2.6834568594193797,0.03675692752172188,102.9882910234669,-2.6834568594193797,0.03675692752172188,1.0,1.744731557433731,5068983.228960621,0.0,0.3503458569028175,1087172.5909025741,7.0,9.549753278878297,1.8663455450361766E7,0.0,0.0,0.0,-28.924399949122808,3797.2148966300033,21411.21140522278,146.325703159844,314234.0009545438,-0.009997490013683663,0.8743679668238268,7.0,57.0,325.48828,-227.80151
Finger1,28.828122138541445,191.35545833438576,69.83391728764255,215.95505676734012,53.56094549133138,3.1037631362820264,-0.002762925279039763,53.56094549133138,3.1037631362820264,-0.002762925279039763,53.56094549133138,3.1037631362820264,-0.002762925279039763,53.56094549133138,3.1037631362820264,-0.002762925279039763,3.0,4.406129981726891,4784666.981517601,0.0,NaN,0.0,0.0,0.0,0.0,0.0,0.0,0.0,71.48030526,2518.433489981242,47382.51320102511,217.67524710224887,340774.8356089525,-0.9516683834468589,0.5745186179341618,4.0,27.0,474.43542,-229.71497
Finger2,49.77956697478434,128.97618135225682,81.03352907151974,136.3471507779481,131.04340853628827,131.04340853628827,131.04340853628827,0.0,0.0,0.0,0.0,0.0,0.0,111.83536692418647,-2.4401403780669,0.06679956533126541,0.0,0.0,0.0,0.0,0.0,0.0,0.0,0.0,0.0,0.0,0.0,0.0,-4.854643102564116,3823.8962240493797,44766.582487740445,211.58114870597626,425862.1633262088,-1.4278008179455761,0.35354612214741116,2.0,39.0,332.63855,-324.78333
Finger2,61.83096783094274,299.3582430959638,95.2767989986927,336.43046271802575,184.43547594285621,-5.790311522219426,0.05863110003684846,184.43547594285621,-5.790311522219426,0.05863110003684846,184.43547594285621,-5.790311522219426,0.05863110003684846,184.43547594285621,-5.790311522219426,0.05863110003684846,11.0,17.13006621384383,3.050861555230209E8,0.0,0.0,1484905.28977561,1.0,0.8298650719110345,2.61352130918688E7,0.0,0.0,0.0,61.77783610092593,10741.163642547475,59639.18921111317,244.2113617568052,1695268.0294570993,0.23989225074743858,0.8438227066326226,6.0,108.0,718.75305,-339.78882
Finger2,53.0517125504076,146.44932938472326,41.35983613593406,151.29262044526183,31.488974746538474,34.79404693975181,-2.304619383605573,31.488974746538474,34.79404693975181,-2.304619383605573,31.488974746538474,34.79404693975181,-2.304619383605573,31.488974746538474,34.79404693975181,-2.304619383605573,1.0,0.9588930767775341,229655.62942341328,0.0,0.33556834029151994,1836922.9927942057,1.0,0.8340621032472127,6610082.342954466,0.0,0.0,0.0,-201.26495524999999,1821.381193358806,18206.985721600333,134.9332639551876,239132.46435937614,-1.55321220938134,0.24276350403456903,1.0,16.0,16.616821,-370.8069
Finger2,65.47698205901918,183.22196714194436,36.11179190984354,205.99789245675282,165.44125176773343,10.512143823190286,-2.2851080842102363,165.44125176773343,10.512143823190286,-2.2851080842102363,165.44125176773343,10.512143823190286,-2.2851080842102363,165.44125176773343,10.512143823190286,-2.2851080842102363,4.0,5.023955654612391,1.0086959367688334E7,0.0,0.0,0.0,1.0,1.7547593317059513,3.596666796689522E7,0.0,0.0,0.0,-123.06518468,3644.6839452930067,56161.82905899472,236.98487094959188,540036.9744506971,-1.6063834661134626,-0.07253240633270407,3.0,30.0,205.94788,-505.05066
Finger2,89.96298421899388,225.33411300460105,51.565897948516856,231.93357714807678,230.3599928933557,-46.24993326267543,3.4218242865981097,230.3599928933557,-46.24993326267543,3.4218242865981097,230.3599928933557,-46.24993326267543,3.4218242865981097,230.3599928933557,-46.24993326267543,3.4218242865981097,1.0,0.8648026305639777,1963435.707046672,0.0,0.0,550887.5892127204,1.0,0.8380450194964666,1.502420361362285E7,0.0,0.0,0.0,276.12876971249995,2479.564740553623,34102.547666268816,184.66875119052713,446935.36329573864,-1.5696754132485118,-0.09605354528162732,0.0,16.0,527.81067,5.5389404
Finger2,62.7951473776848,199.46337604489062,60.05146055791968,215.4676064374129,56.395724550176624,48.74430857288576,-3.868374277450073,56.395724550176624,48.74430857288576,-3.868374277450073,56.395724550176624,48.74430857288576,-3.868374277450073,56.395724550176624,48.74430857288576,-3.868374277450073,1.0,1.0902720814584927,286113.5534159511,0.0,0.0,514003.4224417023,0.0,0.0,0.0,0.0,0.0,0.0,249.21635314285712,2057.0736911674217,38281.05451053337,195.65544845603807,348601.7866107721,-1.3998984651451338,-0.3528240027546956,1.0,14.0,490.3473,-101.01013
Finger2,73.55818973308143,206.09450446910046,64.40563345462499,211.46972407810256,48.80535034166314,43.93811445148822,-2.919113420363228,48.80535034166314,43.93811445148822,-2.919113420363228,48.80535034166314,43.93811445148822,-2.919113420363228,48.80535034166314,43.93811445148822,-2.919113420363228,1.0,1.1192977049479196,841576.348716678,0.0,0.3560320260462708,2007126.2292403395,0.0,0.0,0.0,0.0,0.0,0.0,260.94703525625,2433.7586988828443,37905.189285030254,194.69255066650663,421632.82594106515,-1.1836257277939768,-0.5084119935635522,1.0,16.0,502.43225,-101.61438
Finger2,105.10331993606141,229.22708050254766,65.63005673615723,240.62395525471388,251.46492792025708,-1.9567680358886719,-1.9567699432373047,251.46492792025708,-1.9567680358886719,-1.9567699432373047,251.46492792025708,-1.9567680358886719,-1.9567699432373047,251.46492792025708,-1.9567680358886719,-1.9567699432373047,18.0,19.76568483499205,7.948314119930828E7,0.0,0.0,0.0,0.0,0.0,0.0,0.0,0.0,0.0,24.286742677500005,6758.611143517821,28333.443699516305,168.32541014213007,730532.7368284306,1.3411388274079794,1.1131886649653775,7.0,100.0,536.0687,-240.1886
Finger2,35.32387845954967,126.15352178942302,45.59036586040336,136.66510030088386,36.197963521698455,-0.16813653982607857,2.653717206695023E-4,36.197963521698455,-0.16813653982607857,2.653717206695023E-4,36.197963521698455,-0.16813653982607857,2.653717206695023E-4,0.0,0.0,0.0,0.0,0.0,0.0,0.0,0.7980099521777486,3540505.105965123,1.0,0.8395856606153598,4993036.72110755,0.0,0.0,0.0,0.0,0.0,0.0,0.0,0.0,0.0,0.0,0.0,0.0,0.0,0.0
Finger2,33.0266076420471,155.38296074076547,33.32979441103639,175.22347740139026,33.9341222173673,42.21209303739204,-3.130305797519725,33.9341222173673,42.21209303739204,-3.130305797519725,33.9341222173673,42.21209303739204,-3.130305797519725,33.9341222173673,42.21209303739204,-3.130305797519725,1.0,1.0067163164512956,215923.92813470235,0.0,0.3542356141897986,1496688.854798404,0.0,0.0,0.0,0.0,0.0,0.0,211.3928233333333,1764.0212180435008,22710.50616346765,150.70005362795214,249766.4371794684,-1.8631137215722362,-0.1566725208967439,0.0,15.0,388.83362,22.25647
Finger2,34.67260682282093,138.75034465888126,43.36079150038186,161.78733445669351,171.14688169922624,5.780658262752922,-3.5776417112952004,43.964070285864864,33.728965695263014,-2.360669450740062,43.964070285864864,33.728965695263014,-2.360669450740062,43.964070285864864,33.728965695263014,-2.360669450740062,1.0,1.1931322323726012,74923.39819674758,0.0,0.3340053901938795,2251401.792653391,0.0,0.0,0.0,0.0,0.0,0.0,193.7622070625,1823.6708895273657,23066.57139515138,151.87682968495022,241699.01002451498,-1.4928254699656502,-0.42622976039433913,1.0,16.0,378.76282,-38.974
Finger2,95.3475523894533,246.76592893599664,71.24229285955448,275.12928786609024,143.0568790125659,-2.5162522909864045,0.015967570273291987,143.0568790125659,-2.5162522909864045,0.015967570273291987,252.33845720913473,-57.333715070061544,4.94023331583432,143.0568790125659,-2.5162522909864045,0.015967570273291987,27.0,36.1967747760779,4.9651182691339785E8,0.0,0.3564086559425219,3443374.115006392,1.0,0.8317587973718147,1.8506779072296042E7,0.0,0.0,0.0,25.09939759764707,14092.983881817103,40310.53413586377,200.77483441871834,1741395.6322713639,0.2908381332098555,0.6266450455578241,12.0,170.0,618.6493,-357.51343
Finger2,75.1053999731256,226.07642052683255,49.53037056904842,225.35999305776974,28.274464769477163,9.564271320789516,-0.1381338611567866,28.274464769477163,9.564271320789516,-0.1381338611567866,28.274464769477163,9.564271320789516,-0.1381338611567866,0.0,0.0,0.0,7.0,8.766831845729726,1.811000513202988E8,1.0,0.8313654195094489,1.4684225647349525E7,0.0,0.0,0.0,5.0,8.501741134472649,3.3412529219160956E8,-48.43438568367347,7380.629910609865,113891.14990433345,337.47762874645997,1419788.322668409,-0.7384493958196825,0.4702824094636915,3.0,49.0,657.11975,-547.348
Finger2,26.019010563658018,160.03168485533726,80.77019240369356,175.15354667484016,162.50692546313175,-32.50714216950496,0.9322916699677393,162.50692546313175,-32.50714216950496,0.9322916699677393,162.50692546313175,-32.50714216950496,0.9322916699677393,162.50692546313175,-32.50714216950496,0.9322916699677393,0.0,0.9095271774014089,93624.45142196641,0.0,0.35886087564879227,1347656.2513371129,0.0,0.0,0.0,0.0,0.0,0.0,-220.43544128571426,1745.0392469508513,27683.37961571606,166.38323117344507,255392.2465991106,-0.9919711047232402,0.6264987939068879,1.0,14.0,113.39722,-401.72424
Finger2,28.520073980173358,118.10030358016154,53.15614854313101,153.3103820740731,75.39284876468292,-3.1638137222151386,0.11377149780994777,116.11605508590293,-2.9830913307304883,0.01633264462337891,116.11605508590293,-2.9830913307304883,0.01633264462337891,116.11605508590293,-2.9830913307304883,0.01633264462337891,0.0,0.0,0.0,0.0,0.3591927809242279,986517.67353628,3.0,4.778902481302148,4920027.429204843,0.0,0.0,0.0,-46.79229733333334,2325.5626996235155,28613.600429825237,169.1555509873242,223964.0085472568,-1.196231597599184,-0.3526240320822333,2.0,30.0,179.66309,-359.6283
Finger2,32.803507056877855,165.30023402001075,73.08537450404184,192.37078314607524,116.98458233256963,-0.7743575130360085,0.0033414651962436204,116.98458233256963,-0.7743575130360085,0.0033414651962436204,116.98458233256963,-0.7743575130360085,0.0033414651962436204,116.98458233256963,-0.7743575130360085,0.0033414651962436204,23.0,34.598300722490954,1.1046193193312035E9,0.0,0.3526811070228179,1652213.0242251267,1.0,0.8524563120308697,8039621.890877392,0.0,0.0,0.0,7.741443923317312,17613.441598726477,38881.70180150936,197.18443600220928,2013249.1589433874,-0.6654102378396787,-0.025929554162059828,12.0,208.0,453.58887,-446.3379
Finger2,55.954474080509065,263.9666495556156,57.94086389690229,293.2841320436871,289.43188130565454,0.0,0.0,289.43188130565454,0.0,0.0,289.43188130565454,0.0,0.0,289.43188130565454,0.0,0.0,12.0,16.73209288521093,3.812291249955178E8,0.0,0.0,0.0,0.0,0.0,0.0,0.0,0.0,0.0,-16.482544520238083,10164.838041104227,76222.62932063617,276.0844604838095,1596958.3147343348,-0.4392551183457152,0.6066036114107284,6.0,84.0,656.3141,-430.82886
Finger2,17.4276946887169,128.5718899028966,56.87227330263916,150.28979239885598,163.46103568680962,7.991962717535671,-2.309354581118413,163.46103568680962,7.991962717535671,-2.309354581118413,163.46103568680962,7.991962717535671,-2.309354581118413,163.46103568680962,7.991962717535671,-2.309354581118413,6.0,8.370892121332673,5.321014034130428E7,1.0,0.8368435579033942,6724450.64981663,0.0,0.0,0.0,0.0,0.0,0.0,25.019225553333353,6139.389514503134,52789.273147021704,229.75916335811658,785735.2411330624,-1.093990325118901,-0.07492853304317672,3.0,60.0,367.68494,-422.4701
Finger2,38.98818431688516,168.73019190387794,52.30820906772285,193.53385160258435,44.777627187923144,0.4755004032482617,-2.8269561832997003E-4,44.777627187923144,0.4755004032482617,-2.8269561832997003E-4,44.777627187923144,0.4755004032482617,-2.8269561832997003E-4,44.777627187923144,0.4755004032482617,-2.8269561832997003E-4,0.0,0.0,0.0,0.0,0.0,395415.59851263993,2.0,2.239920023602354,5325657.646097014,0.0,0.0,0.0,-7.310795308834586,26296.86159066506,55694.60013238955,235.99703416015538,3697645.821677896,-0.1745589640946612,0.35803921527204763,19.0,266.0,590.7532,-504.84924
Finger2,64.6129154174019,182.4347486215437,66.67420148619902,196.56282505624245,98.39191587787127,-0.3460730123334841,0.0036201072462933026,98.39191587787127,-0.3460730123334841,0.0036201072462933026,98.39191587787127,-0.3460730123334841,0.0036201072462933026,98.39191587787127,-0.3460730123334841,0.0036201072462933026,24.0,36.09451574016266,8.755794092159705E8,0.0,0.0,326402.5660249105,1.0,1.9759881452284958,5085059.096598264,0.0,0.0,0.0,-22.055703676129017,15570.581498258387,49010.17206979554,221.38241138309868,1916812.324566606,-0.9171692614047675,0.06432670333563166,10.0,155.0,430.52673,-458.72498
Finger2,58.34745086848649,91.88708973303069,56.775063517773326,105.6436026621382,93.21668143778061,-1.5898023554604492,0.011037217038077474,93.21668143778061,-1.5898023554604492,0.011037217038077474,93.21668143778061,-1.5898023554604492,0.011037217038077474,0.0,0.0,0.0,13.0,18.01100366001303,1.401156708500468E8,1.0,0.836063910676583,3285502.4681533817,5.0,7.980793911666215,1.7188708020859815E7,0.0,0.0,0.0,-14.930842665734268,7834.5042673668795,16875.62026418175,129.90619794367686,618117.2991677636,-0.43668533465326087,-0.3848014666605676,12.0,143.0,251.06506,-311.28845
Finger2,88.3021483409991,192.188962506783,66.6067491527645,193.2419188326467,193.68482716444845,-26.794573231765867,1.073777664411324,113.21700693165735,-3.2704704649743945,0.04077870359895197,113.21700693165735,-3.2704704649743945,0.04077870359895197,113.21700693165735,-3.2704704649743945,0.04077870359895197,12.0,17.75429440303621,7.580086409542634E7,0.0,0.35817860017078945,1560044.4971130472,0.0,0.0,0.0,0.0,0.0,0.0,-39.21670536040001,8522.559219390496,38531.36081783603,196.2940671997909,1014880.41856078,-0.2976653737502786,0.1731565441468442,5.0,100.0,426.90125,-459.83276
Finger2,34.16192432132367,120.58424197755221,98.92061387799728,145.87962168837024,70.4743367034616,-0.3734427223731782,5.348108699971378E-4,70.4743367034616,-0.3734427223731782,5.348108699971378E-4,70.4743367034616,-0.3734427223731782,5.348108699971378E-4,0.0,0.0,0.0,13.0,18.39078442897713,8.950227490331402E7,1.0,0.8455151728088506,6456811.387296571,0.0,0.0,0.0,0.0,0.0,0.0,-1.1292588376142028,13248.571871671375,5666.347565104476,75.27514573286774,828968.1420486594,6.790867329634178,-1.1639527788372122,78.0,591.0,242.20276,-353.88794
Finger2,96.87547116852262,250.00331074897636,41.176836132102615,271.70530321435484,256.38140741890186,-58.67343504255996,5.138774121455839,256.38140741890186,-58.67343504255996,5.138774121455839,256.38140741890186,-58.67343504255996,5.138774121455839,256.38140741890186,-58.67343504255996,5.138774121455839,1.0,1.0107843462486972,1255223.5188172553,0.0,0.0,0.0,1.0,0.8343240841568759,1.8087078163646705E7,0.0,0.0,0.0,288.5913840375,2772.0705593539633,59653.48233610447,244.2406238448151,574607.6634790716,-1.6249351704815187,-0.15424204633445437,1.0,16.0,605.75867,-61.73401
Finger2,63.0641319398537,167.21546394277996,41.45793543054427,172.6942015183029,25.573375384212,35.03325460928687,-1.983571415976936,25.573375384212,35.03325460928687,-1.983571415976936,25.573375384212,35.03325460928687,-1.983571415976936,25.573375384212,35.03325460928687,-1.983571415976936,1.0,0.8748178355545907,1460281.9830013488,0.0,0.33374420647590114,2525333.521525115,1.0,0.8319186712423557,8607422.73473856,0.0,0.0,0.0,232.3837281666667,2279.7337348736196,19077.25024108138,138.1204193487747,332247.9326300668,-1.4993484184770478,-0.30624722216719724,0.0,18.0,413.00354,21.652222
Finger2,8.839472829388693,138.70936409016633,30.12468396958815,137.82858585971982,101.24038005690454,0.25012576226970396,-0.23592829586029307,0.0,0.0,0.0,101.24038005690454,0.25012576226970396,-0.23592829586029307,101.24038005690454,0.25012576226970396,-0.23592829586029307,1.0,0.9937121549044021,58352.43396239472,0.0,0.3346461935689255,1522793.3185099033,3.0,4.592424114703378,9443171.729690941,0.0,0.0,0.0,34.703980196666656,2618.0347177316535,37111.866705120745,192.64440481135378,278071.05601791135,-1.4763063789915367,0.26462170838500476,2.0,30.0,341.80298,-223.16895
Finger2,101.50770391035275,261.3085451650009,91.63254436155538,269.17221073959,61.84129818313136,45.68853445265222,-2.5438517496193853,61.84129818313136,45.68853445265222,-2.5438517496193853,61.84129818313136,45.68853445265222,-2.5438517496193853,61.84129818313136,45.68853445265222,-2.5438517496193853,1.0,1.617108173440206,8052698.617135762,0.0,0.3569992814194011,3404696.391625865,1.0,0.8396472237769222,2.082920554082919E7,0.0,0.0,0.0,361.6704316666667,3562.7137660999765,38294.601039363595,195.6900637215993,780083.407570192,-1.0102461798580782,-0.5076781485840531,1.0,18.0,597.5006,-41.39099
Finger2,90.47529103361443,207.56261536170814,58.59786990094001,219.11724400179588,45.2254970413353,5.380372568805228,-0.05470864626351535,45.2254970413353,5.380372568805228,-0.05470864626351535,45.2254970413353,5.380372568805228,-0.05470864626351535,45.2254970413353,5.380372568805228,-0.05470864626351535,2.0,3.7527628561859183,2.3220410270864375E7,0.0,0.35582699979874965,2316578.9055462535,1.0,0.8305122040922844,1.286358320665523E7,0.0,0.0,0.0,30.995686722222192,4202.046696498612,65794.82469663728,256.5050188527259,598112.3364911577,-1.2573286753658115,0.6740421303436297,1.0,36.0,484.1034,-235.45532
Finger2,52.00769600675012,198.7836307893493,67.78999004490487,215.37232396991897,230.16543910058022,12.178709050871475,-5.131775568208809,230.16543910058022,12.178709050871475,-5.131775568208809,230.16543910058022,12.178709050871475,-5.131775568208809,230.16543910058022,12.178709050871475,-5.131775568208809,0.0,0.0,0.0,0.0,0.3344298210018171,3826251.0075821485,1.0,0.8370214863226715,1.2678586366768878E7,22.0,32.963585571638134,2.917465038704633E9,-9.642975971532838,12337.850142034607,50511.96325371695,224.74866685637303,1727943.744865157,-0.022278889194877305,0.31934486948978,9.0,137.0,509.68323,-520.7611
Finger2,78.90632584309556,176.91375796121133,75.5403941852649,177.71899669911198,79.14414618043793,32.16881284332726,-2.0925996505384177,79.14414618043793,32.16881284332726,-2.0925996505384177,79.14414618043793,32.16881284332726,-2.0925996505384177,79.14414618043793,32.16881284332726,-2.0925996505384177,1.0,1.1968975186939081,51136.91782771857,1.0,0.8390159402052442,9663759.897207575,0.0,0.0,0.0,0.0,0.0,0.0,-263.1737212941176,2589.87995534593,29464.148488076913,171.65124085795858,430254.6596782096,-0.9723086420723028,0.768414527315439,1.0,17.0,76.84021,-433.14514
Finger2,66.31718306435253,159.32452181977507,68.73671969852487,182.1740281529587,144.05930177559173,-2.47262527193044,0.032652984666890816,144.05930177559173,-2.47262527193044,0.032652984666890816,144.05930177559173,-2.47262527193044,0.032652984666890816,0.0,0.0,0.0,7.0,9.699856519405266,1.1944076002434064E8,0.0,0.3599370078727365,1471597.3608492631,1.0,0.8431166068049581,8204542.276874148,7.0,9.07547094697298,3.052178285928158E8,-61.29381724193546,7029.4828438765235,64684.81847466042,254.33210272134428,1057166.863460592,-0.5552144560023513,0.41990658243015494,2.0,62.0,490.3473,-479.47083
Finger2,40.739632750466455,149.54657178156123,60.63072519003469,164.59243298576115,52.774160587689835,33.2772419936972,-2.3267823682989928,52.774160587689835,33.2772419936972,-2.3267823682989928,52.774160587689835,33.2772419936972,-2.3267823682989928,52.774160587689835,33.2772419936972,-2.3267823682989928,1.0,0.9374251783368395,287078.31598081975,0.0,0.3346201043791742,2282113.6538351784,1.0,0.834053273884267,7067635.956060614,0.0,0.0,0.0,-215.45219343749997,1952.4454724836994,21622.370271823325,147.04547008263575,270832.11284842185,-1.0874259367272434,0.5970509257709233,1.0,16.0,66.56799,-385.51025
Finger2,98.30837121064796,254.70873377074966,34.82899569093741,268.6802681644295,258.77831599479714,-40.424477413184604,1.449146153019285,258.77831599479714,-40.424477413184604,1.449146153019285,258.77831599479714,-40.424477413184604,1.449146153019285,258.77831599479714,-40.424477413184604,1.449146153019285,1.0,0.9717737674521335,1131865.1055466176,0.0,0.0,920535.1301808485,0.0,0.0,0.0,0.0,0.0,0.0,297.976114575,2860.8846051104756,60963.41860283218,246.90771272447563,605107.7418236405,-1.7310042519087199,-0.26511297913739407,2.0,16.0,590.0482,-57.20215
Finger2,25.837943408094638,118.87834663264178,72.27050847351629,168.03292072881456,119.79744799526273,-22.812765463351525,0.7641853223044706,119.79744799526273,-22.812765463351525,0.7641853223044706,119.79744799526273,-22.812765463351525,0.7641853223044706,91.21583303771422,19.910028872410777,-1.1963837265168564,3.0,2.50596430076528,28440.980942031532,1.0,1.762147837390388,2.8633848953522548E7,1.0,0.8398613231636918,4354316.722922356,0.0,0.0,0.0,-227.92140495238098,2663.017262807047,23286.42008656929,152.59888625599234,383939.71742557205,-0.050678927111239336,1.1181931735983808,1.0,21.0,136.66077,-374.53308
Finger2,34.509902414296995,127.75788761693826,86.34544303731185,151.576353053887,165.16969632219048,5.912861838164417,-3.7919507083373674,137.82665321842626,-7.9998800612217735,0.1707128896111021,137.82665321842626,-7.9998800612217735,0.1707128896111021,137.82665321842626,-7.9998800612217735,0.1707128896111021,5.0,7.958210843726761,4.643188441769802E7,0.0,0.3356024462204505,1835677.8402407486,0.0,0.0,0.0,0.0,0.0,0.0,-4.369012787234056,3550.7420002211966,33963.310356709066,184.2913735276534,386034.1757874212,-0.8177045741491504,-0.18135308375595008,4.0,47.0,289.93835,-371.71326
Finger2,47.67851995147968,144.71567400666564,94.04578139768877,177.4746626069925,0.0,0.0,0.0,131.05766831134372,-7.131028957184668,0.11764052244718659,0.0,0.0,0.0,131.05766831134372,-7.131028957184668,0.11764052244718659,5.0,7.933997542848734,6.890551710354364E7,0.0,0.7934903353286915,5945758.79498572,0.0,0.0,0.0,0.0,0.0,0.0,6.967163009090884,4372.548531713906,30565.573995898085,174.83012897066135,489843.96714445134,-0.12800765048150042,0.6675804512723851,4.0,66.0,400.1129,-255.99976
Finger2,48.93843945857305,152.21686128499073,72.14166673033924,171.37842705005303,154.1930361871402,-26.238751550770758,0.9387424990928821,154.1930361871402,-26.238751550770758,0.9387424990928821,154.1930361871402,-26.238751550770758,0.9387424990928821,154.1930361871402,-26.238751550770758,0.9387424990928821,0.0,0.828234157948606,127104.61737977143,0.0,0.0,0.0,1.0,0.8343912637632558,7331302.549684067,0.0,0.0,0.0,-239.659879875,2123.540142202417,23133.148195658574,152.09585200017315,318730.90682129987,-0.8877430740493026,0.6693979083304417,1.0,16.0,67.07153,-412.6007
Finger2,50.131562196792935,134.65537446312817,91.47208096602516,144.0778407003447,0.0,0.0,0.0,0.0,0.0,0.0,0.0,0.0,0.0,0.0,0.0,0.0,0.0,0.0,0.0,0.0,0.7966317180436664,3939195.4508843413,1.0,0.8388517908445906,5661603.525311053,0.0,0.0,0.0,0.0,0.0,0.0,0.0,0.0,0.0,0.0,0.0,0.0,0.0,0.0
Finger2,11.56694059302975,151.15884359997187,70.03728590659642,162.33170673155277,129.04476405908554,-0.5244082725284116,0.00129442892408968,129.04476405908554,-0.5244082725284116,0.00129442892408968,129.04476405908554,-0.5244082725284116,0.00129442892408968,129.04476405908554,-0.5244082725284116,0.00129442892408968,23.0,35.743779713781784,2.939672835460055E9,0.0,0.3510495415331282,1069134.922287295,3.0,4.60305501898396,1.4986608006791044E7,0.0,0.0,0.0,-2.012768121198156,20091.211628046098,48283.24373250507,219.73448462293092,2602070.2932350505,-0.34642773886492595,0.45068652505720846,15.0,217.0,577.66113,-454.29382
Finger2,71.67744421598402,165.05549278240255,92.32599062012613,198.91958475155576,205.86402814749624,-1.2382138774476061,-2.4451780109100127,205.86402814749624,-1.2382138774476061,-2.4451780109100127,205.86402814749624,-1.2382138774476061,-2.4451780109100127,205.86402814749624,-1.2382138774476061,-2.4451780109100127,1.0,1.6038477937304343,40106.57577960107,0.0,0.3337931002308411,3665037.433407439,0.0,0.0,0.0,0.0,0.0,0.0,-246.33849986666667,2253.458878100341,38178.41021974936,195.39296358812248,366588.6604404866,-0.39832972792239474,0.9828771167003116,1.0,15.0,196.58203,-428.51257
Finger2,76.99873724534304,189.00994534487089,58.97608306740189,202.22882389336795,86.32543167676056,-2.1505095498682465,0.0155620707103446,86.32543167676056,-2.1505095498682465,0.0155620707103446,86.32543167676056,-2.1505095498682465,0.0155620707103446,86.32543167676056,-2.1505095498682465,0.0155620707103446,26.0,35.224037211454224,1.1106867586718693E9,1.0,0.9175183001493094,1.8734729002416294E7,1.0,0.8319067353216553,1.1158349373929773E7,0.0,0.0,0.0,-15.457547460393268,10498.283721759057,28924.832490364854,170.07302105379574,1310537.3709956787,2.031437021010162,0.004219037009347704,11.0,178.0,485.3119,-472.42126
Finger2,106.8318941216936,224.97144748279882,80.02157761890696,244.08321512721,249.21099146785616,-3.573162078857422,-3.573162078857422,249.21099146785616,-3.573162078857422,-3.573162078857422,249.21099146785616,-3.573162078857422,-3.573162078857422,249.21099146785616,-3.573162078857422,-3.573162078857422,3.0,4.154178511810157,9444113.225329237,0.0,0.0,0.0,1.0,0.8362803075932135,1.5180533771382146E7,0.0,0.0,0.0,58.260943645945915,3830.6278735279284,59793.119344667815,244.52631626200852,586505.6313108652,-0.9592999359085033,0.7078001670448715,1.0,37.0,529.6234,-233.844
Finger2,20.596166259909,130.01152409463455,68.74045516927893,134.97499315288934,158.29906690338646,-2.059084868266485,0.011351954017782717,158.29906690338646,-2.059084868266485,0.011351954017782717,158.29906690338646,-2.059084868266485,0.011351954017782717,158.29906690338646,-2.059084868266485,0.011351954017782717,26.0,35.81865358441936,6.010743332549314E8,0.0,0.3608374531277865,740215.3411464705,1.0,0.8358785084513481,4821438.538031938,0.0,0.0,0.0,8.310372372857142,13805.768364001802,44638.06191464027,211.27721579630935,1705660.5416535027,-0.5032545780163811,0.4003947558269868,6.0,154.0,496.6919,-398.6023
Finger2,73.58065288516016,185.22541531673602,58.53553602687161,205.74964718588325,56.711745288637076,40.46680584508698,-2.544259970603111,56.711745288637076,40.46680584508698,-2.544259970603111,56.711745288637076,40.46680584508698,-2.544259970603111,56.711745288637076,40.46680584508698,-2.544259970603111,1.0,0.9017604340698732,469546.88491992274,0.0,0.7921462739579181,7929401.4022686025,1.0,0.8326444404396139,1.0684395239883225E7,0.0,0.0,0.0,280.99311088235294,2661.3723493835296,28932.49840135848,170.09555667729384,468212.10838363867,-1.3952701856753333,-0.48984478903093986,1.0,17.0,474.43542,-16.71753
Finger2,101.0745771321975,185.4632475886851,73.25807748734394,195.70366782539,81.78127648080908,36.616410504683245,-2.8387452689951544,81.78127648080908,36.616410504683245,-2.8387452689951544,81.78127648080908,36.616410504683245,-2.8387452689951544,81.78127648080908,36.616410504683245,-2.8387452689951544,0.0,0.9517160225850881,52743.28671591519,0.0,0.0,0.0,0.0,0.0,0.0,1.0,1.768629928239178,3.2561854682305083E7,-248.97177542857145,2152.0988521682893,33695.162121497466,183.5624202321855,356268.78725770145,-1.3104840325966924,0.5513891692276128,1.0,14.0,86.60889,-445.1294
Finger2,45.6334197035349,137.07521293956995,39.32022164600383,139.45645219444688,152.43714782358632,10.251135398785209,-3.440325160546763,152.43714782358632,10.251135398785209,-3.440325160546763,152.43714782358632,10.251135398785209,-3.440325160546763,152.43714782358632,10.251135398785209,-3.440325160546763,1.0,0.9780728074244806,85437.776208974,0.0,0.33430931622034066,1644383.1917025512,1.0,0.8350524421135327,5595392.735388639,0.0,0.0,0.0,180.53798631249998,1668.2090066997896,18342.72425963543,135.43531393117317,202454.40245799182,-1.4855690039736196,-0.3839069626792041,1.0,16.0,345.22705,-31.118774
Finger2,99.40247905972893,192.7103785167812,51.27567720033083,205.64361999915354,141.96310949296912,3.5739939453442844,-0.12658020895947786,141.96310949296912,3.5739939453442844,-0.12658020895947786,141.96310949296912,3.5739939453442844,-0.12658020895947786,141.96310949296912,3.5739939453442844,-0.12658020895947786,0.0,0.0,0.0,0.0,0.3553029636979461,1847525.7080595354,0.0,0.0,0.0,4.0,4.767150122680056,3951118.7544209654,21.08825510333336,4730.686964785202,110340.52356336391,332.17544093951904,839745.5871205465,-1.4525573259249918,-0.02306971798550296,2.0,30.0,497.09473,-476.14746
Finger2,76.92445098808965,212.00987294619176,27.817987253957682,233.5142177039561,240.65540472231237,-4.028606414794922,-4.028608322143555,240.65540472231237,-4.028606414794922,-4.028608322143555,240.65540472231237,-4.028606414794922,-4.028608322143555,240.65540472231237,-4.028606414794922,-4.028608322143555,1.0,1.947886753824662,2256930.0131357163,0.0,0.0,662141.3776084902,1.0,0.8327913259720721,1.3252765012348054E7,0.0,0.0,0.0,255.95828911176474,2472.3418869741186,36800.60362158967,191.83483422358324,437832.598253357,-1.6622103223503424,-0.07815236236722406,0.0,17.0,515.3229,3.7261963
Finger2,35.58535656118735,185.2177508297741,76.1822162629042,210.9403068163123,222.78707546498708,5.426755574923391,-5.804676557592757,222.78707546498708,5.426755574923391,-5.804676557592757,222.78707546498708,5.426755574923391,-5.804676557592757,222.78707546498708,5.426755574923391,-5.804676557592757,23.0,34.09727567400442,9.495129766218655E8,0.0,0.35668034010874555,1932301.4697092455,1.0,0.8447204350218375,9880113.727105467,0.0,0.0,0.0,-2.996599093351063,20999.134501668203,67146.06322474155,259.1255742390966,3136172.2891182187,-1.0160412326401487,0.15119371381191368,9.0,188.0,503.74146,-503.84216
Finger2,37.38831427954659,133.46656210341098,64.20424861158536,153.0913226056968,56.725814551290455,8.25030865782793,-0.3096978756483715,56.725814551290455,8.25030865782793,-0.3096978756483715,56.725814551290455,8.25030865782793,-0.3096978756483715,56.725814551290455,8.25030865782793,-0.3096978756483715,1.0,1.890787027336593,8738893.947063008,0.0,0.3543161597623917,1076623.5149678602,0.0,0.0,0.0,0.0,0.0,0.0,-29.261719444,2375.7183710208665,42247.07300495812,205.54092780990874,259292.48202318492,-1.5845758965512675,-0.3417751312858888,1.0,25.0,208.66699,-352.78015
Finger2,110.89831929910456,241.5247014924994,60.00200458946365,280.5849465428505,101.9915377747459,-1.534067767924654,0.015401658570377452,101.9915377747459,-1.534067767924654,0.015401658570377452,101.9915377747459,-1.534067767924654,0.015401658570377452,101.9915377747459,-1.534067767924654,0.015401658570377452,23.0,34.878033929961184,6.171318192730725E8,0.0,0.0,1066386.4897212083,0.0,0.0,0.0,0.0,0.0,0.0,20.72811898169014,13670.12564610574,51581.82674890846,227.11632867081235,1852804.0956622562,-0.31946126983591894,0.1422596151402298,8.0,142.0,599.11194,-411.49292
Finger2,62.28835483502663,206.33551279334245,53.242920018696445,228.1085284641869,46.06817114410842,-0.5011349000339429,0.0016123115841666091,46.06817114410842,-0.5011349000339429,0.0016123115841666091,46.06817114410842,-0.5011349000339429,0.0016123115841666091,0.0,0.0,0.0,46.0,70.91723805150963,3.6883796426650805E9,0.0,0.7991414609925375,9984762.343431287,0.0,0.0,0.0,0.0,0.0,0.0,-7.59783750599602,27894.021568167296,29236.836569922212,170.9878257944764,3674133.839328257,2.219215305538765,0.4128308306954529,45.0,502.0,633.35266,-518.54553
Finger2,108.51330810658692,281.75140337791106,59.124199435275074,297.7114827329306,298.01348861185,0.0,0.0,298.01348861185,0.0,0.0,0.0,0.0,0.0,298.01348861185,0.0,0.0,0.0,0.0,0.0,0.0,0.0,0.0,0.0,0.0,0.0,0.0,0.0,0.0,0.0,0.0,0.0,0.0,0.0,0.0,0.0,0.0,0.0,0.0,0.0
Finger2,14.050355293079072,74.65228264289699,33.587411468046604,118.29136793183459,106.57665188004921,-4.024391293163607,0.04637508706844434,106.57665188004921,-4.024391293163607,0.04637508706844434,106.57665188004921,-4.024391293163607,0.04637508706844434,106.57665188004921,-4.024391293163607,0.04637508706844434,0.0,0.7353163761650836,13541.736215891951,0.0,0.0,0.0,0.0,0.0,0.0,0.0,0.0,0.0,-14.834427271506833,3094.5588293092383,11702.898547274737,108.17993597370419,215014.79832373656,0.2788116337568307,-1.016988043877894,8.0,73.0,161.33423,-278.0548
Finger2,47.82381342970194,159.7679518536125,63.97433366955596,194.1151467971841,280.8830581130519,-6.239962102151708,0.04510837891271635,280.8830581130519,-6.239962102151708,0.04510837891271635,280.8830581130519,-6.239962102151708,0.04510837891271635,280.8830581130519,-6.239962102151708,0.04510837891271635,13.0,17.788993811783683,5.981637494239321E8,0.0,0.3528430382125231,1960956.7185921757,0.0,0.0,0.0,0.0,0.0,0.0,13.811629540085486,14293.125649265825,92428.57124881646,304.02067569298055,2689016.017239604,-0.06325305178092533,0.25163654294439347,8.0,117.0,740.7074,-627.713
Finger2,80.74420863080526,209.6159946860802,113.16864089866255,243.59680215012148,127.43060056523063,38.46984257386691,-3.3769597249226138,127.43060056523063,38.46984257386691,-3.3769597249226138,127.43060056523063,38.46984257386691,-3.3769597249226138,127.43060056523063,38.46984257386691,-3.3769597249226138,1.0,1.8103888102669181,63371.825948321,0.0,0.35383426328884,3133335.7883179346,0.0,0.0,0.0,0.0,0.0,0.0,-283.98938813571425,2519.0540686978043,67440.99493319026,259.6940410043909,495211.98340113275,-0.6253517963094275,0.9210961962382017,1.0,14.0,284.60083,-527.81067
Finger2,101.00822569233206,237.39705062554685,53.54188766185221,250.97227363498635,263.7174715378342,7.459206128088226,-5.846429005738628,263.7174715378342,7.459206128088226,-5.846429005738628,263.7174715378342,7.459206128088226,-5.846429005738628,263.7174715378342,7.459206128088226,-5.846429005738628,8.0,10.149183167952364,8.260440006364848E7,0.0,0.0,0.0,0.0,0.0,0.0,0.0,0.0,0.0,-42.71638041964286,7774.3603580650915,97584.65712821553,312.38543040323685,1406140.486109113,-0.920076106477624,0.13557662897070366,3.0,56.0,564.06555,-550.9735
Finger2,84.42379647091823,250.20842242998347,85.52868555788257,265.6954361490432,273.1420986199887,-2.0896663665771484,-2.0896663665771484,273.1420986199887,-2.0896663665771484,-2.0896663665771484,273.1420986199887,-2.0896663665771484,-2.0896663665771484,273.1420986199887,-2.0896663665771484,-2.0896663665771484,11.0,17.283429009152645,6.362079820725188E8,0.0,0.0,905906.8310423044,1.0,0.8296755646800195,1.8700984834160686E7,0.0,0.0,0.0,55.77545215897435,9999.16369219083,100708.19777610278,317.3455494821107,2016037.229699656,-0.5970013050912137,-0.060641803190647964,7.0,78.0,601.1261,-605.75867
Finger2,71.67237496074212,182.68531947213992,85.91676453792351,191.6126798753089,87.08225275783684,36.09297334293416,-3.0181692793971067,87.08225275783684,36.09297334293416,-3.0181692793971067,87.08225275783684,36.09297334293416,-3.0181692793971067,87.08225275783684,36.09297334293416,-3.0181692793971067,0.0,0.7887603675355311,189695.81218889024,0.0,0.0,0.0,0.0,0.0,0.0,1.0,1.80338249495553,3.359841117101538E7,-250.36729935714288,2031.7314738613109,29106.68904465285,170.60682590287192,325796.82212830975,-1.086808094573667,0.5043714041066296,1.0,14.0,76.638794,-471.01135
Finger2,55.78002720514616,176.45158316042054,66.37024143163858,173.52877060726513,192.00855729060504,-0.050198433221510186,-0.00793695722994281,192.00855729060504,-0.050198433221510186,-0.00793695722994281,192.00855729060504,-0.050198433221510186,-0.00793695722994281,192.00855729060504,-0.050198433221510186,-0.00793695722994281,10.0,18.060554296191604,4.71088168167804E8,1.0,0.8372220969354291,9443758.409848401,1.0,0.8345397516868599,9625797.99610479,0.0,0.0,0.0,25.158425330097067,16664.178550665438,124736.87178132248,353.1810750611115,3199817.7664490277,-1.3728438086262633,-0.025203221173886035,5.0,103.0,600.72327,-581.3873
Finger2,82.38990128132322,206.9929615047897,61.1334863632805,221.66129657562828,207.7402668740839,-25.410853540289963,0.042216147425932604,207.7402668740839,-25.410853540289963,0.042216147425932604,207.7402668740839,-25.410853540289963,0.042216147425932604,207.7402668740839,-25.410853540289963,0.042216147425932604,2.0,3.8799802825882352,7.521893377748911E7,0.0,0.7972540641469089,9393704.519257274,1.0,0.8351152836718764,1.3444641754471524E7,0.0,0.0,0.0,-2.4393715016666686,6115.3882658142,129293.06390615806,359.57344716505145,1155532.34676511,-1.5910180494439217,-0.06642681986615165,2.0,36.0,496.99402,-518.74695
Finger2,53.450948893769095,185.41006109970536,92.22166633397161,215.87951992052092,83.1001733111118,36.883202588344545,-2.659657810233984,83.1001733111118,36.883202588344545,-2.659657810233984,83.1001733111118,36.883202588344545,-2.659657810233984,83.1001733111118,36.883202588344545,-2.659657810233984,1.0,1.065573868993607,1708603.6978352917,0.0,0.3569246266280564,2180755.162118599,0.0,0.0,0.0,1.0,1.855772245798014,5.2775052565496564E7,-269.1862106875,2457.6113997199905,35612.45599868069,188.7126280848229,422348.27238295076,-0.19304293657865434,0.924160443600255,1.0,16.0,172.91565,-484.1034
Finger2,59.6691164765526,163.57886642734184,66.9345519131825,161.11266346278316,70.67950938415083,27.186816113791565,-1.4865745419370349,70.67950938415083,27.186816113791565,-1.4865745419370349,70.67950938415083,27.186816113791565,-1.4865745419370349,70.67950938415083,27.186816113791565,-1.4865745419370349,0.0,0.8221284904156706,61907.05537880665,1.0,1.6219807571799514,2.3012386674924906E7,0.0,0.0,0.0,0.0,0.0,0.0,-263.37661699999995,2907.2461314257243,22883.918202850975,151.27431441871082,462607.92691218026,-0.14529378274691052,1.0918765814268645,1.0,20.0,102.822876,-389.74
Finger2,104.54777905346074,216.7092031319465,55.38964244601503,250.93275505878043,217.4136177801746,-24.5504268288646,0.37761120105602686,217.4136177801746,-24.5504268288646,0.37761120105602686,68.15524649502044,-0.6157710894200816,0.0015932801735203776,68.15524649502044,-0.6157710894200816,0.0015932801735203776,52.0,71.65441635426333,1.0885105531030111E9,0.0,0.0,0.0,0.0,0.0,0.0,59.0,74.22885639632453,2.9575879866893554E9,0.0,0.0,0.0,0.0,0.0,0.0,0.0,0.0,0.0,0.0,0.0
Finger2,31.290733519497987,112.74624735834666,77.10978711635309,152.8250240171367,154.90574197234798,-1.1544022142358301,-0.0014282821683653246,154.90574197234798,-1.1544022142358301,-0.0014282821683653246,154.90574197234798,-1.1544022142358301,-0.0014282821683653246,154.90574197234798,-1.1544022142358301,-0.0014282821683653246,6.0,8.644341861750208,2.043361718089387E8,1.0,0.831718950674637,6940180.000116572,1.0,0.8357191995964411,4067034.7146326588,0.0,0.0,0.0,-115.2397993425926,6640.062405893164,58305.74922126692,241.4658344802985,950031.7857191397,-0.9746870929412874,0.5589109182252067,3.0,54.0,345.7306,-424.08142
Finger2,13.635730572582544,121.87036470093224,46.87564447526743,145.60806402060493,0.0,0.0,0.0,88.55652653859158,0.20671028230282218,-0.0034253025086061484,88.55652653859158,0.20671028230282218,-0.0034253025086061484,88.55652653859158,0.20671028230282218,-0.0034253025086061484,22.0,32.87773324182508,1.852090785478922E9,0.0,0.0,0.0,0.0,0.0,0.0,0.0,0.0,0.0,-17.386831185714282,13023.670437090173,34371.990160984176,185.39684506750424,1385610.1335786176,-0.8650466997785968,0.043998170137929296,7.0,161.0,403.6377,-336.36475
Finger2,78.48312173289065,163.44621464203576,74.70183057411877,172.62173167203088,69.4363324356392,30.873108818400397,-2.155918259374417,69.4363324356392,30.873108818400397,-2.155918259374417,69.4363324356392,30.873108818400397,-2.155918259374417,69.4363324356392,30.873108818400397,-2.155918259374417,1.0,0.8931229616849997,830239.7452491747,0.0,0.33430346663075206,2553423.947168623,1.0,0.826552132028197,8145767.250887678,0.0,0.0,0.0,245.76530437499997,2142.4157362483497,18454.832584530075,135.8485648968368,316483.2761053579,-0.9242300417374465,-0.613705847893437,1.0,16.0,403.43628,-36.95984
Finger2,126.45509392292948,267.81106143489745,130.1677300170964,295.22630593497956,268.7801014162128,-31.29999917463215,0.5370411628225611,268.7801014162128,-31.29999917463215,0.5370411628225611,268.7801014162128,-31.29999917463215,0.5370411628225611,268.7801014162128,-31.29999917463215,0.5370411628225611,5.0,7.94126117949181,1.4064208537851205E8,0.0,0.0,1173355.38615409,0.0,0.0,0.0,0.0,0.0,0.0,-125.17121892982456,9731.388817488269,123085.91861487369,350.83602810269315,1983178.8153066305,-1.4989997089996168,0.09430830982645791,3.0,57.0,419.54956,-634.0576
Finger2,49.64480255452961,140.46100021194462,34.111007513517976,204.20736262353316,219.31959674090172,1.8202562829812905,-1.22787729032882,219.31959674090172,1.8202562829812905,-1.22787729032882,219.31959674090172,1.8202562829812905,-1.22787729032882,219.31959674090172,1.8202562829812905,-1.22787729032882,23.0,35.52741729783099,6.030681854519703E8,1.0,1.6481661377815997,3.406715252843884E7,1.0,0.8357718052303127,6253079.393191255,0.0,0.0,0.0,-10.31559287438203,12304.073321198799,19399.998523753628,139.28387747242544,1303086.191563194,3.735114773230423,-0.06819021662488478,28.0,267.0,498.60535,-461.5448
Finger2,67.27852007395225,198.33704565805152,51.12118848850715,217.93817065418455,106.31694070199273,5.342612699022396,-0.1366613002771313,106.31694070199273,5.342612699022396,-0.1366613002771313,106.31694070199273,5.342612699022396,-0.1366613002771313,106.31694070199273,5.342612699022396,-0.1366613002771313,2.0,3.532090930104893,8.110332348529157E7,0.0,0.3548904599453729,2251464.663064999,1.0,0.8336591879967609,1.239380102536252E7,0.0,0.0,0.0,37.91512608571433,5029.737587258692,95743.09636021992,309.4238134989289,840170.5370982228,-1.274054450135068,-0.3974273258117065,2.0,35.0,442.00745,-492.26074
Finger2,83.65233159397118,209.49037246728474,96.38572776975799,234.27701000746302,0.0,0.0,0.0,179.24441440755362,-4.93046531386743,0.034498441865391916,179.24441440755362,-4.93046531386743,0.034498441865391916,179.24441440755362,-4.93046531386743,0.034498441865391916,3.0,2.6516362621044225,33914.47821517132,0.0,0.35364791873033896,2649381.996351285,0.0,0.0,0.0,0.0,0.0,0.0,-30.755615129242436,7180.105586835366,22913.051461444422,151.3705766040561,801113.9786847439,1.6554970890473495,-1.5492705014182053,9.0,132.0,141.19263,-518.84766
Finger2,51.64349585654705,183.6656334968867,70.84132944990245,203.3880577675347,128.65014433616693,-0.21068011431708555,0.014187588126554296,128.65014433616693,-0.21068011431708555,0.014187588126554296,128.65014433616693,-0.21068011431708555,0.014187588126554296,128.65014433616693,-0.21068011431708555,0.014187588126554296,7.0,9.812359438594845,1.391577604829107E8,0.0,0.8041050882770349,8037935.0454321075,0.0,0.0,0.0,0.0,0.0,0.0,-83.8394162089286,7688.369479514595,81219.93526397586,284.99111435968643,1221135.3795197597,-1.2692776628156122,0.3830026456475206,3.0,56.0,416.83044,-461.84692
Finger2,83.1999304548373,182.94504242888908,84.07229217004775,206.77143237580367,218.96699421329242,8.585057510209936,-4.20367332495141,0.0,0.0,0.0,218.96699421329242,8.585057510209936,-4.20367332495141,218.96699421329242,8.585057510209936,-4.20367332495141,1.0,1.0048553688953037,595264.2585094912,0.0,0.33394315398820473,3709464.5781023833,1.0,0.8370331227741086,1.036265069566852E7,0.0,0.0,0.0,270.74718531250005,2458.2109651458795,34161.30022986651,184.82775827744734,423183.6134538261,-0.6107835103658639,-0.7730390705372213,1.0,16.0,479.2694,-139.48059
Finger2,55.98167370889739,177.6451656415069,97.16688040069711,251.98261418577673,66.054780524649,10.329473861708038,-0.2495190961694167,66.054780524649,10.329473861708038,-0.2495190961694167,66.054780524649,10.329473861708038,-0.2495190961694167,66.054780524649,10.329473861708038,-0.2495190961694167,3.0,4.070317673630138,2.694807899399989E7,1.0,0.9081339164689852,2.500185415734728E7,0.0,0.0,0.0,0.0,0.0,0.0,-87.49748735294118,4914.472619010196,94405.66817749597,307.2550539494769,841644.8822532474,-1.7318092246424497,-0.1986373067912773,1.0,34.0,284.60083,-558.4259
Finger2,75.98258642736505,222.7256094859998,58.34652541575966,249.04339652707708,126.29306831926237,0.9559378097070521,-0.008859870996884123,126.29306831926237,0.9559378097070521,-0.008859870996884123,126.29306831926237,0.9559378097070521,-0.008859870996884123,126.29306831926237,0.9559378097070521,-0.008859870996884123,5.0,8.182364733220306,1.1279131865501215E8,0.0,0.3531716735141318,3092577.654550609,1.0,0.8345165519330179,1.5586545185466643E7,0.0,0.0,0.0,13.255906572881363,8495.690292757008,102111.06434476326,319.548219123129,1501314.0136144508,-1.2719384850889535,-0.046197538545917356,3.0,59.0,548.4558,-492.16003
Finger2,71.0252689594129,153.71535215036394,78.27150154063001,179.13632475826435,112.04519996441059,-1.8073029735472659,0.04552387363156196,112.04519996441059,-1.8073029735472659,0.04552387363156196,112.04519996441059,-1.8073029735472659,0.04552387363156196,112.04519996441059,-1.8073029735472659,0.04552387363156196,7.0,9.911004186902893,8.617673866565125E7,0.0,0.7929153933083607,6085910.408012957,0.0,0.0,0.0,0.0,0.0,0.0,-83.54597382758624,6395.7700364465645,50654.0208330585,225.06448150043246,834199.5891676145,-0.945830959969574,0.5141883784442066,3.0,58.0,364.6637,-412.3993
Finger2,47.64200948149547,155.9258120060887,55.8059593925406,182.07833554765935,37.43255751087759,3.839815856165444,-0.035624279482502796,37.43255751087759,3.839815856165444,-0.035624279482502796,37.43255751087759,3.839815856165444,-0.035624279482502796,37.43255751087759,3.839815856165444,-0.035624279482502796,0.0,0.0,0.0,0.0,0.0,0.0,0.0,0.0,0.0,7.0,9.134806442902143,1.8711521585837588E8,-42.333983745454546,5838.809210399779,56869.175532597714,238.47258863986383,800370.2693368752,-0.8109661713384875,0.3286128206278998,3.0,55.0,406.96106,-425.1892
Finger2,101.13484639244672,204.18560020410206,35.910355562125964,249.86586307158328,204.48641458923476,-25.726454039348027,1.0021237892597696,204.48641458923476,-25.726454039348027,1.0021237892597696,204.48641458923476,-25.726454039348027,1.0021237892597696,204.48641458923476,-25.726454039348027,1.0021237892597696,6.0,8.413861151137386,1.0679130196149716E8,1.0,0.8300994251581615,3.2603339161156543E7,1.0,0.8402640171330548,1.3156018558764668E7,0.0,0.0,0.0,-55.227325309375004,9588.546325819916,116365.28669203752,341.1235651373817,1916952.2051295368,-0.5164804601749782,0.6104604308227234,3.0,64.0,657.5226,-539.7949
Finger2,111.72500044241363,234.28802464340447,69.05320784880763,264.9861848706862,166.80131334765088,-0.24636579185519736,0.011366226589518691,166.80131334765088,-0.24636579185519736,0.011366226589518691,166.80131334765088,-0.24636579185519736,0.011366226589518691,166.80131334765088,-0.24636579185519736,0.011366226589518691,12.0,17.426878085382803,3.738436024283177E8,0.0,0.3337196642123986,6412022.187497038,1.0,0.8390809641357544,1.7145323124501556E7,0.0,0.0,0.0,-25.870031338157897,13605.242513568626,143685.01784778654,379.05806659110493,2750638.4592848998,-1.4416903501990725,0.22622287983505432,4.0,76.0,609.18274,-574.33777
Finger2,138.1797899903156,272.6669387160844,56.557149781616275,282.75727829217175,90.65650255545279,10.525645243169208,-0.20492433507948427,90.65650255545279,10.525645243169208,-0.20492433507948427,90.65650255545279,10.525645243169208,-0.20492433507948427,90.65650255545279,10.525645243169208,-0.20492433507948427,3.0,3.7778430329491277,4.3841914103937455E7,0.0,0.3335445274003299,7336735.6638924815,1.0,0.8340418121578993,2.2522075892980453E7,0.0,0.0,0.0,-75.64115482500003,5987.2362491051135,150768.8942905883,388.28970407491914,1279281.847183657,-1.6125912373676734,-0.12713573436785788,2.0,32.0,457.31506,-609.787
Finger2,149.59725331102229,239.72367334029025,101.45716665014704,273.6596558113268,173.96786561694785,0.5552171062895468,0.008920986679522347,173.96786561694785,0.5552171062895468,0.008920986679522347,173.96786561694785,0.5552171062895468,0.008920986679522347,173.96786561694785,0.5552171062895468,0.008920986679522347,6.0,9.15544961328813,2.5464101691069895E8,0.0,0.8008423563578525,1.44697601729775E7,0.0,0.0,0.0,0.0,0.0,0.0,-119.46018030508475,11809.369062138778,166037.93818094017,407.47753089089485,2680954.8090426396,-0.9715316909082725,0.6848417612878341,3.0,59.0,651.98364,-597.0978
Finger2,92.4839346799359,179.06630983941645,51.01348241470898,217.83763916892335,152.43227516550087,1.702106874221812,-0.06206321146599425,152.43227516550087,1.702106874221812,-0.06206321146599425,152.43227516550087,1.702106874221812,-0.06206321146599425,152.43227516550087,1.702106874221812,-0.06206321146599425,2.0,3.6957645712154843,7.721232590365255E7,0.0,0.3338590693127186,4419245.542672955,0.0,0.0,0.0,0.0,0.0,0.0,15.663056155882327,5359.989337132326,115172.0257271482,339.37004247155966,982431.7330071122,-1.4184723237716912,0.06435367585639774,2.0,34.0,535.06165,-471.6156
Finger2,31.070158829024738,124.10594416528481,71.16020891647304,164.08851833648214,83.26346659786805,26.28914345034559,-2.1146826725332275,83.26346659786805,26.28914345034559,-2.1146826725332275,83.26346659786805,26.28914345034559,-2.1146826725332275,83.26346659786805,26.28914345034559,-2.1146826725332275,0.0,0.742618137861573,137899.5664058875,0.0,0.7977455117840062,5158589.524264782,0.0,0.0,0.0,0.0,0.0,0.0,-216.27044715,1864.7061664987914,18564.402767129275,136.2512486809911,255228.83192923196,-1.1428421087465745,0.526814498554804,1.0,16.0,57.10144,-369.49768
Finger2,77.0340278070189,204.70246320384737,73.92661664469347,224.72223062609015,27.60401752977566,1.189403501561543,-0.0017049006366284258,27.60401752977566,1.189403501561543,-0.0017049006366284258,0.0,0.0,0.0,27.60401752977566,1.189403501561543,-0.0017049006366284258,11.0,17.271063396828602,7.322187487878969E8,0.0,0.7989550351299614,9707577.479146257,1.0,0.8380563830420803,1.3050658990543604E7,0.0,0.0,0.0,27.293845139411765,8948.199699995239,51210.26221206776,226.29684534272184,1319766.990453116,-0.28849157022790406,0.3473153947742128,4.0,102.0,518.1427,-460.53772
Finger2,109.93299971137161,223.74990316967458,60.077839607460746,214.99121056590948,75.81528580410054,-1.2266316041270109,0.004816913853365669,224.96012015398708,-23.421993566954484,0.03601957696776026,0.0,0.0,0.0,0.0,0.0,0.0,0.0,0.0,0.0,0.0,0.8007836568398724,8886499.286054004,0.0,0.0,0.0,0.0,0.0,0.0,0.0,0.0,0.0,0.0,0.0,0.0,0.0,0.0,0.0,0.0,0.0
Finger2,92.80454367797167,195.77065304251659,86.58130093041966,188.06490927567307,199.80088426557427,-40.02898914040975,3.5140472991909917,199.80088426557427,-40.02898914040975,3.5140472991909917,199.80088426557427,-40.02898914040975,3.5140472991909917,199.80088426557427,-40.02898914040975,3.5140472991909917,5.0,8.257682240683883,3.9049922786109763E8,1.0,0.9233464712728103,1.652604104637417E7,1.0,0.8353594798755466,1.1828821104366684E7,0.0,0.0,0.0,-2.2373508040540386,8862.885475902756,72398.97961913659,269.0705848269866,1331763.6224340764,-1.1006956334268956,0.0752817826607338,4.0,74.0,474.63684,-469.90356
Finger2,173.5827650717607,304.28629286099783,36.64495179033988,323.6116741112863,328.91938304249373,-3.7106151580810547,-3.7106151580810547,328.91938304249373,-3.7106151580810547,-3.7106151580810547,328.91938304249373,-3.7106151580810547,-3.7106151580810547,328.91938304249373,-3.7106151580810547,-3.7106151580810547,0.0,0.0,0.0,0.0,0.0,0.0,1.0,0.8362532255519651,2.823394614156966E7,0.0,0.0,0.0,3.4381243591472903,11767.63494456066,26239.056166410926,161.98474053567801,1793712.4952682252,7.170454105075267,-1.0440554876246892,33.0,258.0,513.4094,-684.81445
Finger2,84.06418120173363,206.57046756751882,98.6978408729879,238.69132503065876,102.82643980773946,38.683877745301174,-2.7350390971898975,102.82643980773946,38.683877745301174,-2.7350390971898975,102.82643980773946,38.683877745301174,-2.7350390971898975,102.82643980773946,38.683877745301174,-2.7350390971898975,1.0,0.9898499098641416,941631.4657830179,0.0,0.3338248904513791,5241571.827275008,1.0,0.8370624625060954,1.3391282174859742E7,0.0,0.0,0.0,-316.63227225,2895.839886872753,40237.522377469235,200.5929270374936,569785.7557848876,-0.4257753663078718,0.9251532472154289,1.0,16.0,141.19263,-516.5314
Finger2,84.63532158524156,178.5813599168837,98.65810000771963,212.12843634800373,99.07256962685005,32.2994123043145,-2.4921782207446412,99.07256962685005,32.2994123043145,-2.4921782207446412,99.07256962685005,32.2994123043145,-2.4921782207446412,99.07256962685005,32.2994123043145,-2.4921782207446412,1.0,0.8971577218872067,2093346.2651670922,0.0,0.0,0.0,1.0,0.840438276499705,1.0204028282095954E7,1.0,1.8770745063730199,5.4044784410282046E7,-293.8323974666666,2347.965943290698,17304.413345222605,131.5462403310053,397015.40498040465,-1.1021114260539313,0.32287488745139026,0.0,15.0,-30.715942,-471.41418
Finger2,60.8588842949384,197.90985781011284,61.28267578506916,208.5710667968945,199.426538943627,-23.67147431406147,-0.8737365006674338,220.419045328038,9.0386035033398,-2.0799902727250696,220.419045328038,9.0386035033398,-2.0799902727250696,199.426538943627,-23.67147431406147,-0.8737365006674338,22.0,32.177459025846105,8.975371417082561E8,1.0,0.8345778782394764,1.3159265276873332E7,0.0,0.0,0.0,0.0,0.0,0.0,-0.6643114117488784,12622.229957061343,25671.34938523018,160.22281168806825,1438450.0713536532,2.1276955251077654,-0.12504206353825745,14.0,223.0,464.56604,-465.97595
Finger2,139.48351479468474,280.1229189541078,84.96210476959385,297.9290168896012,311.495719127799,6.551231825328614,-5.8612340701824905,311.495719127799,6.551231825328614,-5.8612340701824905,311.495719127799,6.551231825328614,-5.8612340701824905,311.495719127799,6.551231825328614,-5.8612340701824905,11.0,16.32759835070123,6.173517818765315E8,0.0,0.3560148330528424,4251871.475131207,1.0,0.8379879014409157,2.4143311926109895E7,0.0,0.0,0.0,-40.94288637798162,18153.535636056564,135708.75253550312,368.38668886850826,3773589.4003773704,-1.057469201257463,0.37267788326753387,5.0,109.0,643.42346,-656.6162
Finger2,35.50179346185785,193.77098821109888,58.926211527863515,207.87465788231555,57.41630806557566,11.21209867465825,-0.3988462662033516,57.41630806557566,11.21209867465825,-0.3988462662033516,57.41630806557566,11.21209867465825,-0.3988462662033516,57.41630806557566,11.21209867465825,-0.3988462662033516,3.0,4.085158933525677,2.4233535249647573E7,0.0,0.0,242419.7974461025,0.0,0.0,0.0,0.0,0.0,0.0,-18.66320779999999,2844.6906002145947,64650.873780954826,254.26536095377762,392692.6851758542,-0.9597953558772043,-0.7104229059585243,1.0,25.0,250.2594,-540.09705
Finger2,93.5553793167052,168.61968939753953,50.62389712335809,181.13698571223134,173.76747597775585,-37.49876819230519,4.038201828236964,173.76747597775585,-37.49876819230519,4.038201828236964,173.76747597775585,-37.49876819230519,4.038201828236964,173.76747597775585,-37.49876819230519,4.038201828236964,12.0,16.833372384795197,5.570432362460371E8,0.0,0.0,0.0,1.0,0.8338060200406675,8836866.424128996,0.0,0.0,0.0,20.37812694027525,14584.005003056263,91201.16481775377,301.99530595317833,2487696.9787609153,-1.152855239785812,0.0390954809589678,5.0,109.0,560.6415,-514.1144
Finger2,91.70947702489575,249.38575850873403,43.235538939288794,286.0792196054785,197.4153382847394,-2.1231542641662458,0.007258061034475238,197.4153382847394,-2.1231542641662458,0.007258061034475238,197.4153382847394,-2.1231542641662458,0.007258061034475238,197.4153382847394,-2.1231542641662458,0.007258061034475238,7.0,9.632822281385248,1.2729336359219572E8,0.0,0.0,1195274.5839161,0.0,0.0,0.0,11.0,16.9009677621011,5.7462584890863E8,59.37247986376811,10272.889564844969,117917.90188022857,343.39176152061157,2098795.0606862246,-0.9499150826351292,-0.14688087162580055,3.0,69.0,604.7516,-607.2693
Finger2,60.36224858064147,148.74288081610814,72.20245776474486,156.72354132696677,215.6649293299804,-3.7495023894697255,0.03114213040508551,215.6649293299804,-3.7495023894697255,0.03114213040508551,215.6649293299804,-3.7495023894697255,0.03114213040508551,215.6649293299804,-3.7495023894697255,0.03114213040508551,11.0,16.770458343370017,3.5599619516054815E8,1.0,0.8348009388056721,7731126.239693694,0.0,0.0,0.0,0.0,0.0,0.0,-17.05127016279069,11330.748428966543,91248.5185777307,302.0736972623249,1954601.5190249549,-0.9787629275050067,-0.14053802756444483,3.0,86.0,528.5156,-603.7445
Finger2,118.17298149275379,229.0171473003121,61.74926933042388,243.84693667126356,69.43629878968159,-1.2229065513804223,0.005136130196512136,69.43629878968159,-1.2229065513804223,0.005136130196512136,69.43629878968159,-1.2229065513804223,0.005136130196512136,69.43629878968159,-1.2229065513804223,0.005136130196512136,44.0,68.27030407144234,2.2014529108922215E9,0.0,0.3548141284156329,2732772.1782699483,1.0,0.83714060263521,1.6247758591224167E7,0.0,0.0,0.0,-8.444233854835531,12648.32226393129,18539.089948877758,136.15832677026316,1457180.7755339963,3.9044189185066607,-0.8958406842339577,27.0,304.0,400.1129,-545.9381
Finger2,150.3370559782579,268.4760762233289,73.77815504773099,274.38773357768713,112.93591498773662,-2.512885627278507,0.08208038254806693,112.93591498773662,-2.512885627278507,0.08208038254806693,112.93591498773662,-2.512885627278507,0.08208038254806693,112.93591498773662,-2.512885627278507,0.08208038254806693,7.0,9.116810958535558,1.9403524705549374E7,0.0,0.0,834155.1394424835,1.0,0.8395424142981565,2.172926209509203E7,0.0,0.0,0.0,-50.16395683225808,8613.934148519558,95725.84012951868,309.3959277843176,1571272.8347657276,-0.8135568548535228,0.25346505444004674,2.0,62.0,525.6958,-617.8436
Finger2,61.58348238356554,167.19324938226373,49.30377555105011,196.13742032427567,171.74561618058777,-43.786386694969735,4.14380650799086,0.0,0.0,0.0,0.0,0.0,0.0,171.74561618058777,-43.786386694969735,4.14380650799086,1.0,0.8576592945445471,1939397.9832054337,0.0,0.35650802664649606,1833264.6796355187,1.0,0.8448501317940806,8529121.646602482,0.0,0.0,0.0,240.43740705882354,2193.3211935574113,20438.36584515477,142.96281280513045,332212.665712054,-1.5923961845354178,-0.09356492042328479,0.0,17.0,434.45435,34.84497
Finger2,47.66691485749496,142.45440579858072,41.99211105645548,142.39447741574207,73.20886543032123,-0.9249124594939246,0.03326593960455293,73.20886543032123,-0.9249124594939246,0.03326593960455293,145.34811605298705,-28.6578064678655,1.6965598255218453,73.20886543032123,-0.9249124594939246,0.03326593960455293,7.0,9.396460790333109,3.077893680312287E7,0.0,0.33594349927755096,1570049.0569799405,1.0,0.8398867832496739,6292773.660386584,0.0,0.0,0.0,43.43935425490566,4209.9567664841,28796.369206729734,169.69492982033887,404460.40096487565,-1.2083035042430117,0.1263257788286286,3.0,53.0,362.85095,-214.00452
Finger2,62.369441597964,173.0676176817,40.170043222975536,193.34690428173457,173.6081845094227,-24.131060853099484,0.33426557135001644,173.6081845094227,-24.131060853099484,0.33426557135001644,173.6081845094227,-24.131060853099484,0.33426557135001644,173.6081845094227,-24.131060853099484,0.33426557135001644,1.0,0.928998499002783,1003921.4108556228,0.0,0.0,0.0,1.0,0.8440565074416888,9730213.516274828,2.0,3.679750234383067,6.485916208075714E7,238.0681362722222,2443.565246384228,27539.586282981123,165.95055372905847,384056.8777530624,-1.336234233217109,-0.4111743721826056,1.0,18.0,455.80444,-40.182495
