Klasse,minimumSteigungWert,maximumSteigungWert,minimumSenkungWert,maximumSenkungWert,steigungA,steigungB,steigungC,senkungA,senkungB,senkungC,mittelA,mittelB,mittelC,gesamtA,gesamtB,gesamtC,fftAnfangMedian,fftAnfangMittel,fftAnfangPSD,fftMitteMedian,fftMitteMittel,fftMittePSD,fftEndeMedian,fftEndeMittel,fftEndePSD,fftGesamtMedian,fftGesamtMittel,fftGesamtPSD,mittelwert,signalstärke,varianz,standardabweichung,energie,kurtosis,schiefe,zeroCrossings,laenge,maximalwert,minimalwert
Finger2,49.77956697478434,128.97618135225682,81.03352907151974,136.3471507779481,131.04340853628827,131.04340853628827,131.04340853628827,0.0,0.0,0.0,0.0,0.0,0.0,111.83536692418647,-2.4401403780669,0.06679956533126541,0.0,0.0,0.0,0.0,0.0,0.0,0.0,0.0,0.0,0.0,0.0,0.0,-4.854643102564116,3823.8962240493797,44766.582487740445,211.58114870597626,425862.1633262088,-1.4278008179455761,0.35354612214741116,2.0,39.0,332.63855,-324.78333
Finger2,61.83096783094274,299.3582430959638,95.2767989986927,336.43046271802575,184.43547594285621,-5.790311522219426,0.05863110003684846,184.43547594285621,-5.790311522219426,0.05863110003684846,184.43547594285621,-5.790311522219426,0.05863110003684846,184.43547594285621,-5.790311522219426,0.05863110003684846,11.0,17.13006621384383,3.050861555230209E8,0.0,0.0,1484905.28977561,1.0,0.8298650719110345,2.61352130918688E7,0.0,0.0,0.0,61.77783610092593,10741.163642547475,59639.18921111317,244.2113617568052,1695268.0294570993,0.23989225074743858,0.8438227066326226,6.0,108.0,718.75305,-339.78882
Finger2,53.0517125504076,146.44932938472326,41.35983613593406,151.29262044526183,31.488974746538474,34.79404693975181,-2.304619383605573,31.488974746538474,34.79404693975181,-2.304619383605573,31.488974746538474,34.79404693975181,-2.304619383605573,31.488974746538474,34.79404693975181,-2.304619383605573,1.0,0.9588930767775341,229655.62942341328,0.0,0.33556834029151994,1836922.9927942057,1.0,0.8340621032472127,6610082.342954466,0.0,0.0,0.0,-201.26495524999999,1821.381193358806,18206.985721600333,134.9332639551876,239132.46435937614,-1.55321220938134,0.24276350403456903,1.0,16.0,16.616821,-370.8069
Finger2,65.47698205901918,183.22196714194436,36.11179190984354,205.99789245675282,165.44125176773343,10.512143823190286,-2.2851080842102363,165.44125176773343,10.512143823190286,-2.2851080842102363,165.44125176773343,10.512143823190286,-2.2851080842102363,165.44125176773343,10.512143823190286,-2.2851080842102363,4.0,5.023955654612391,1.0086959367688334E7,0.0,0.0,0.0,1.0,1.7547593317059513,3.596666796689522E7,0.0,0.0,0.0,-123.06518468,3644.6839452930067,56161.82905899472,236.98487094959188,540036.9744506971,-1.6063834661134626,-0.07253240633270407,3.0,30.0,205.94788,-505.05066
Finger2,89.96298421899388,225.33411300460105,51.565897948516856,231.93357714807678,230.3599928933557,-46.24993326267543,3.4218242865981097,230.3599928933557,-46.24993326267543,3.4218242865981097,230.3599928933557,-46.24993326267543,3.4218242865981097,230.3599928933557,-46.24993326267543,3.4218242865981097,1.0,0.8648026305639777,1963435.707046672,0.0,0.0,550887.5892127204,1.0,0.8380450194964666,1.502420361362285E7,0.0,0.0,0.0,276.12876971249995,2479.564740553623,34102.547666268816,184.66875119052713,446935.36329573864,-1.5696754132485118,-0.09605354528162732,0.0,16.0,527.81067,5.5389404
Finger2,62.7951473776848,199.46337604489062,60.05146055791968,215.4676064374129,56.395724550176624,48.74430857288576,-3.868374277450073,56.395724550176624,48.74430857288576,-3.868374277450073,56.395724550176624,48.74430857288576,-3.868374277450073,56.395724550176624,48.74430857288576,-3.868374277450073,1.0,1.0902720814584927,286113.5534159511,0.0,0.0,514003.4224417023,0.0,0.0,0.0,0.0,0.0,0.0,249.21635314285712,2057.0736911674217,38281.05451053337,195.65544845603807,348601.7866107721,-1.3998984651451338,-0.3528240027546956,1.0,14.0,490.3473,-101.01013
Finger2,73.55818973308143,206.09450446910046,64.40563345462499,211.46972407810256,48.80535034166314,43.93811445148822,-2.919113420363228,48.80535034166314,43.93811445148822,-2.919113420363228,48.80535034166314,43.93811445148822,-2.919113420363228,48.80535034166314,43.93811445148822,-2.919113420363228,1.0,1.1192977049479196,841576.348716678,0.0,0.3560320260462708,2007126.2292403395,0.0,0.0,0.0,0.0,0.0,0.0,260.94703525625,2433.7586988828443,37905.189285030254,194.69255066650663,421632.82594106515,-1.1836257277939768,-0.5084119935635522,1.0,16.0,502.43225,-101.61438
Finger2,105.10331993606141,229.22708050254766,65.63005673615723,240.62395525471388,251.46492792025708,-1.9567680358886719,-1.9567699432373047,251.46492792025708,-1.9567680358886719,-1.9567699432373047,251.46492792025708,-1.9567680358886719,-1.9567699432373047,251.46492792025708,-1.9567680358886719,-1.9567699432373047,18.0,19.76568483499205,7.948314119930828E7,0.0,0.0,0.0,0.0,0.0,0.0,0.0,0.0,0.0,24.286742677500005,6758.611143517821,28333.443699516305,168.32541014213007,730532.7368284306,1.3411388274079794,1.1131886649653775,7.0,100.0,536.0687,-240.1886
Finger2,35.32387845954967,126.15352178942302,45.59036586040336,136.66510030088386,36.197963521698455,-0.16813653982607857,2.653717206695023E-4,36.197963521698455,-0.16813653982607857,2.653717206695023E-4,36.197963521698455,-0.16813653982607857,2.653717206695023E-4,0.0,0.0,0.0,0.0,0.0,0.0,0.0,0.7980099521777486,3540505.105965123,1.0,0.8395856606153598,4993036.72110755,0.0,0.0,0.0,0.0,0.0,0.0,0.0,0.0,0.0,0.0,0.0,0.0,0.0,0.0
Finger2,33.0266076420471,155.38296074076547,33.32979441103639,175.22347740139026,33.9341222173673,42.21209303739204,-3.130305797519725,33.9341222173673,42.21209303739204,-3.130305797519725,33.9341222173673,42.21209303739204,-3.130305797519725,33.9341222173673,42.21209303739204,-3.130305797519725,1.0,1.0067163164512956,215923.92813470235,0.0,0.3542356141897986,1496688.854798404,0.0,0.0,0.0,0.0,0.0,0.0,211.3928233333333,1764.0212180435008,22710.50616346765,150.70005362795214,249766.4371794684,-1.8631137215722362,-0.1566725208967439,0.0,15.0,388.83362,22.25647
Finger2,34.67260682282093,138.75034465888126,43.36079150038186,161.78733445669351,171.14688169922624,5.780658262752922,-3.5776417112952004,43.964070285864864,33.728965695263014,-2.360669450740062,43.964070285864864,33.728965695263014,-2.360669450740062,43.964070285864864,33.728965695263014,-2.360669450740062,1.0,1.1931322323726012,74923.39819674758,0.0,0.3340053901938795,2251401.792653391,0.0,0.0,0.0,0.0,0.0,0.0,193.7622070625,1823.6708895273657,23066.57139515138,151.87682968495022,241699.01002451498,-1.4928254699656502,-0.42622976039433913,1.0,16.0,378.76282,-38.974
Finger2,95.3475523894533,246.76592893599664,71.24229285955448,275.12928786609024,143.0568790125659,-2.5162522909864045,0.015967570273291987,143.0568790125659,-2.5162522909864045,0.015967570273291987,252.33845720913473,-57.333715070061544,4.94023331583432,143.0568790125659,-2.5162522909864045,0.015967570273291987,27.0,36.1967747760779,4.9651182691339785E8,0.0,0.3564086559425219,3443374.115006392,1.0,0.8317587973718147,1.8506779072296042E7,0.0,0.0,0.0,25.09939759764707,14092.983881817103,40310.53413586377,200.77483441871834,1741395.6322713639,0.2908381332098555,0.6266450455578241,12.0,170.0,618.6493,-357.51343
Finger2,75.1053999731256,226.07642052683255,49.53037056904842,225.35999305776974,28.274464769477163,9.564271320789516,-0.1381338611567866,28.274464769477163,9.564271320789516,-0.1381338611567866,28.274464769477163,9.564271320789516,-0.1381338611567866,0.0,0.0,0.0,7.0,8.766831845729726,1.811000513202988E8,1.0,0.8313654195094489,1.4684225647349525E7,0.0,0.0,0.0,5.0,8.501741134472649,3.3412529219160956E8,-48.43438568367347,7380.629910609865,113891.14990433345,337.47762874645997,1419788.322668409,-0.7384493958196825,0.4702824094636915,3.0,49.0,657.11975,-547.348
Finger2,26.019010563658018,160.03168485533726,80.77019240369356,175.15354667484016,162.50692546313175,-32.50714216950496,0.9322916699677393,162.50692546313175,-32.50714216950496,0.9322916699677393,162.50692546313175,-32.50714216950496,0.9322916699677393,162.50692546313175,-32.50714216950496,0.9322916699677393,0.0,0.9095271774014089,93624.45142196641,0.0,0.35886087564879227,1347656.2513371129,0.0,0.0,0.0,0.0,0.0,0.0,-220.43544128571426,1745.0392469508513,27683.37961571606,166.38323117344507,255392.2465991106,-0.9919711047232402,0.6264987939068879,1.0,14.0,113.39722,-401.72424
Finger2,28.520073980173358,118.10030358016154,53.15614854313101,153.3103820740731,75.39284876468292,-3.1638137222151386,0.11377149780994777,116.11605508590293,-2.9830913307304883,0.01633264462337891,116.11605508590293,-2.9830913307304883,0.01633264462337891,116.11605508590293,-2.9830913307304883,0.01633264462337891,0.0,0.0,0.0,0.0,0.3591927809242279,986517.67353628,3.0,4.778902481302148,4920027.429204843,0.0,0.0,0.0,-46.79229733333334,2325.5626996235155,28613.600429825237,169.1555509873242,223964.0085472568,-1.196231597599184,-0.3526240320822333,2.0,30.0,179.66309,-359.6283
Finger2,32.803507056877855,165.30023402001075,73.08537450404184,192.37078314607524,116.98458233256963,-0.7743575130360085,0.0033414651962436204,116.98458233256963,-0.7743575130360085,0.0033414651962436204,116.98458233256963,-0.7743575130360085,0.0033414651962436204,116.98458233256963,-0.7743575130360085,0.0033414651962436204,23.0,34.598300722490954,1.1046193193312035E9,0.0,0.3526811070228179,1652213.0242251267,1.0,0.8524563120308697,8039621.890877392,0.0,0.0,0.0,7.741443923317312,17613.441598726477,38881.70180150936,197.18443600220928,2013249.1589433874,-0.6654102378396787,-0.025929554162059828,12.0,208.0,453.58887,-446.3379
Finger2,55.954474080509065,263.9666495556156,57.94086389690229,293.2841320436871,289.43188130565454,0.0,0.0,289.43188130565454,0.0,0.0,289.43188130565454,0.0,0.0,289.43188130565454,0.0,0.0,12.0,16.73209288521093,3.812291249955178E8,0.0,0.0,0.0,0.0,0.0,0.0,0.0,0.0,0.0,-16.482544520238083,10164.838041104227,76222.62932063617,276.0844604838095,1596958.3147343348,-0.4392551183457152,0.6066036114107284,6.0,84.0,656.3141,-430.82886
Finger2,17.4276946887169,128.5718899028966,56.87227330263916,150.28979239885598,163.46103568680962,7.991962717535671,-2.309354581118413,163.46103568680962,7.991962717535671,-2.309354581118413,163.46103568680962,7.991962717535671,-2.309354581118413,163.46103568680962,7.991962717535671,-2.309354581118413,6.0,8.370892121332673,5.321014034130428E7,1.0,0.8368435579033942,6724450.64981663,0.0,0.0,0.0,0.0,0.0,0.0,25.019225553333353,6139.389514503134,52789.273147021704,229.75916335811658,785735.2411330624,-1.093990325118901,-0.07492853304317672,3.0,60.0,367.68494,-422.4701
Finger2,38.98818431688516,168.73019190387794,52.30820906772285,193.53385160258435,44.777627187923144,0.4755004032482617,-2.8269561832997003E-4,44.777627187923144,0.4755004032482617,-2.8269561832997003E-4,44.777627187923144,0.4755004032482617,-2.8269561832997003E-4,44.777627187923144,0.4755004032482617,-2.8269561832997003E-4,0.0,0.0,0.0,0.0,0.0,395415.59851263993,2.0,2.239920023602354,5325657.646097014,0.0,0.0,0.0,-7.310795308834586,26296.86159066506,55694.60013238955,235.99703416015538,3697645.821677896,-0.1745589640946612,0.35803921527204763,19.0,266.0,590.7532,-504.84924
Finger2,64.6129154174019,182.4347486215437,66.67420148619902,196.56282505624245,98.39191587787127,-0.3460730123334841,0.0036201072462933026,98.39191587787127,-0.3460730123334841,0.0036201072462933026,98.39191587787127,-0.3460730123334841,0.0036201072462933026,98.39191587787127,-0.3460730123334841,0.0036201072462933026,24.0,36.09451574016266,8.755794092159705E8,0.0,0.0,326402.5660249105,1.0,1.9759881452284958,5085059.096598264,0.0,0.0,0.0,-22.055703676129017,15570.581498258387,49010.17206979554,221.38241138309868,1916812.324566606,-0.9171692614047675,0.06432670333563166,10.0,155.0,430.52673,-458.72498
Finger2,58.34745086848649,91.88708973303069,56.775063517773326,105.6436026621382,93.21668143778061,-1.5898023554604492,0.011037217038077474,93.21668143778061,-1.5898023554604492,0.011037217038077474,93.21668143778061,-1.5898023554604492,0.011037217038077474,0.0,0.0,0.0,13.0,18.01100366001303,1.401156708500468E8,1.0,0.836063910676583,3285502.4681533817,5.0,7.980793911666215,1.7188708020859815E7,0.0,0.0,0.0,-14.930842665734268,7834.5042673668795,16875.62026418175,129.90619794367686,618117.2991677636,-0.43668533465326087,-0.3848014666605676,12.0,143.0,251.06506,-311.28845
Finger2,88.3021483409991,192.188962506783,66.6067491527645,193.2419188326467,193.68482716444845,-26.794573231765867,1.073777664411324,113.21700693165735,-3.2704704649743945,0.04077870359895197,113.21700693165735,-3.2704704649743945,0.04077870359895197,113.21700693165735,-3.2704704649743945,0.04077870359895197,12.0,17.75429440303621,7.580086409542634E7,0.0,0.35817860017078945,1560044.4971130472,0.0,0.0,0.0,0.0,0.0,0.0,-39.21670536040001,8522.559219390496,38531.36081783603,196.2940671997909,1014880.41856078,-0.2976653737502786,0.1731565441468442,5.0,100.0,426.90125,-459.83276
Finger2,34.16192432132367,120.58424197755221,98.92061387799728,145.87962168837024,70.4743367034616,-0.3734427223731782,5.348108699971378E-4,70.4743367034616,-0.3734427223731782,5.348108699971378E-4,70.4743367034616,-0.3734427223731782,5.348108699971378E-4,0.0,0.0,0.0,13.0,18.39078442897713,8.950227490331402E7,1.0,0.8455151728088506,6456811.387296571,0.0,0.0,0.0,0.0,0.0,0.0,-1.1292588376142028,13248.571871671375,5666.347565104476,75.27514573286774,828968.1420486594,6.790867329634178,-1.1639527788372122,78.0,591.0,242.20276,-353.88794
Finger2,96.87547116852262,250.00331074897636,41.176836132102615,271.70530321435484,256.38140741890186,-58.67343504255996,5.138774121455839,256.38140741890186,-58.67343504255996,5.138774121455839,256.38140741890186,-58.67343504255996,5.138774121455839,256.38140741890186,-58.67343504255996,5.138774121455839,1.0,1.0107843462486972,1255223.5188172553,0.0,0.0,0.0,1.0,0.8343240841568759,1.8087078163646705E7,0.0,0.0,0.0,288.5913840375,2772.0705593539633,59653.48233610447,244.2406238448151,574607.6634790716,-1.6249351704815187,-0.15424204633445437,1.0,16.0,605.75867,-61.73401
Finger2,63.0641319398537,167.21546394277996,41.45793543054427,172.6942015183029,25.573375384212,35.03325460928687,-1.983571415976936,25.573375384212,35.03325460928687,-1.983571415976936,25.573375384212,35.03325460928687,-1.983571415976936,25.573375384212,35.03325460928687,-1.983571415976936,1.0,0.8748178355545907,1460281.9830013488,0.0,0.33374420647590114,2525333.521525115,1.0,0.8319186712423557,8607422.73473856,0.0,0.0,0.0,232.3837281666667,2279.7337348736196,19077.25024108138,138.1204193487747,332247.9326300668,-1.4993484184770478,-0.30624722216719724,0.0,18.0,413.00354,21.652222
Finger2,8.839472829388693,138.70936409016633,30.12468396958815,137.82858585971982,101.24038005690454,0.25012576226970396,-0.23592829586029307,0.0,0.0,0.0,101.24038005690454,0.25012576226970396,-0.23592829586029307,101.24038005690454,0.25012576226970396,-0.23592829586029307,1.0,0.9937121549044021,58352.43396239472,0.0,0.3346461935689255,1522793.3185099033,3.0,4.592424114703378,9443171.729690941,0.0,0.0,0.0,34.703980196666656,2618.0347177316535,37111.866705120745,192.64440481135378,278071.05601791135,-1.4763063789915367,0.26462170838500476,2.0,30.0,341.80298,-223.16895
Finger2,101.50770391035275,261.3085451650009,91.63254436155538,269.17221073959,61.84129818313136,45.68853445265222,-2.5438517496193853,61.84129818313136,45.68853445265222,-2.5438517496193853,61.84129818313136,45.68853445265222,-2.5438517496193853,61.84129818313136,45.68853445265222,-2.5438517496193853,1.0,1.617108173440206,8052698.617135762,0.0,0.3569992814194011,3404696.391625865,1.0,0.8396472237769222,2.082920554082919E7,0.0,0.0,0.0,361.6704316666667,3562.7137660999765,38294.601039363595,195.6900637215993,780083.407570192,-1.0102461798580782,-0.5076781485840531,1.0,18.0,597.5006,-41.39099
Finger2,90.47529103361443,207.56261536170814,58.59786990094001,219.11724400179588,45.2254970413353,5.380372568805228,-0.05470864626351535,45.2254970413353,5.380372568805228,-0.05470864626351535,45.2254970413353,5.380372568805228,-0.05470864626351535,45.2254970413353,5.380372568805228,-0.05470864626351535,2.0,3.7527628561859183,2.3220410270864375E7,0.0,0.35582699979874965,2316578.9055462535,1.0,0.8305122040922844,1.286358320665523E7,0.0,0.0,0.0,30.995686722222192,4202.046696498612,65794.82469663728,256.5050188527259,598112.3364911577,-1.2573286753658115,0.6740421303436297,1.0,36.0,484.1034,-235.45532
Finger2,52.00769600675012,198.7836307893493,67.78999004490487,215.37232396991897,230.16543910058022,12.178709050871475,-5.131775568208809,230.16543910058022,12.178709050871475,-5.131775568208809,230.16543910058022,12.178709050871475,-5.131775568208809,230.16543910058022,12.178709050871475,-5.131775568208809,0.0,0.0,0.0,0.0,0.3344298210018171,3826251.0075821485,1.0,0.8370214863226715,1.2678586366768878E7,22.0,32.963585571638134,2.917465038704633E9,-9.642975971532838,12337.850142034607,50511.96325371695,224.74866685637303,1727943.744865157,-0.022278889194877305,0.31934486948978,9.0,137.0,509.68323,-520.7611
Finger2,78.90632584309556,176.91375796121133,75.5403941852649,177.71899669911198,79.14414618043793,32.16881284332726,-2.0925996505384177,79.14414618043793,32.16881284332726,-2.0925996505384177,79.14414618043793,32.16881284332726,-2.0925996505384177,79.14414618043793,32.16881284332726,-2.0925996505384177,1.0,1.1968975186939081,51136.91782771857,1.0,0.8390159402052442,9663759.897207575,0.0,0.0,0.0,0.0,0.0,0.0,-263.1737212941176,2589.87995534593,29464.148488076913,171.65124085795858,430254.6596782096,-0.9723086420723028,0.768414527315439,1.0,17.0,76.84021,-433.14514
Finger2,66.31718306435253,159.32452181977507,68.73671969852487,182.1740281529587,144.05930177559173,-2.47262527193044,0.032652984666890816,144.05930177559173,-2.47262527193044,0.032652984666890816,144.05930177559173,-2.47262527193044,0.032652984666890816,0.0,0.0,0.0,7.0,9.699856519405266,1.1944076002434064E8,0.0,0.3599370078727365,1471597.3608492631,1.0,0.8431166068049581,8204542.276874148,7.0,9.07547094697298,3.052178285928158E8,-61.29381724193546,7029.4828438765235,64684.81847466042,254.33210272134428,1057166.863460592,-0.5552144560023513,0.41990658243015494,2.0,62.0,490.3473,-479.47083
Finger2,40.739632750466455,149.54657178156123,60.63072519003469,164.59243298576115,52.774160587689835,33.2772419936972,-2.3267823682989928,52.774160587689835,33.2772419936972,-2.3267823682989928,52.774160587689835,33.2772419936972,-2.3267823682989928,52.774160587689835,33.2772419936972,-2.3267823682989928,1.0,0.9374251783368395,287078.31598081975,0.0,0.3346201043791742,2282113.6538351784,1.0,0.834053273884267,7067635.956060614,0.0,0.0,0.0,-215.45219343749997,1952.4454724836994,21622.370271823325,147.04547008263575,270832.11284842185,-1.0874259367272434,0.5970509257709233,1.0,16.0,66.56799,-385.51025
Finger2,98.30837121064796,254.70873377074966,34.82899569093741,268.6802681644295,258.77831599479714,-40.424477413184604,1.449146153019285,258.77831599479714,-40.424477413184604,1.449146153019285,258.77831599479714,-40.424477413184604,1.449146153019285,258.77831599479714,-40.424477413184604,1.449146153019285,1.0,0.9717737674521335,1131865.1055466176,0.0,0.0,920535.1301808485,0.0,0.0,0.0,0.0,0.0,0.0,297.976114575,2860.8846051104756,60963.41860283218,246.90771272447563,605107.7418236405,-1.7310042519087199,-0.26511297913739407,2.0,16.0,590.0482,-57.20215
Finger2,25.837943408094638,118.87834663264178,72.27050847351629,168.03292072881456,119.79744799526273,-22.812765463351525,0.7641853223044706,119.79744799526273,-22.812765463351525,0.7641853223044706,119.79744799526273,-22.812765463351525,0.7641853223044706,91.21583303771422,19.910028872410777,-1.1963837265168564,3.0,2.50596430076528,28440.980942031532,1.0,1.762147837390388,2.8633848953522548E7,1.0,0.8398613231636918,4354316.722922356,0.0,0.0,0.0,-227.92140495238098,2663.017262807047,23286.42008656929,152.59888625599234,383939.71742557205,-0.050678927111239336,1.1181931735983808,1.0,21.0,136.66077,-374.53308
Finger2,34.509902414296995,127.75788761693826,86.34544303731185,151.576353053887,165.16969632219048,5.912861838164417,-3.7919507083373674,137.82665321842626,-7.9998800612217735,0.1707128896111021,137.82665321842626,-7.9998800612217735,0.1707128896111021,137.82665321842626,-7.9998800612217735,0.1707128896111021,5.0,7.958210843726761,4.643188441769802E7,0.0,0.3356024462204505,1835677.8402407486,0.0,0.0,0.0,0.0,0.0,0.0,-4.369012787234056,3550.7420002211966,33963.310356709066,184.2913735276534,386034.1757874212,-0.8177045741491504,-0.18135308375595008,4.0,47.0,289.93835,-371.71326
Finger2,47.67851995147968,144.71567400666564,94.04578139768877,177.4746626069925,0.0,0.0,0.0,131.05766831134372,-7.131028957184668,0.11764052244718659,0.0,0.0,0.0,131.05766831134372,-7.131028957184668,0.11764052244718659,5.0,7.933997542848734,6.890551710354364E7,0.0,0.7934903353286915,5945758.79498572,0.0,0.0,0.0,0.0,0.0,0.0,6.967163009090884,4372.548531713906,30565.573995898085,174.83012897066135,489843.96714445134,-0.12800765048150042,0.6675804512723851,4.0,66.0,400.1129,-255.99976
Finger2,48.93843945857305,152.21686128499073,72.14166673033924,171.37842705005303,154.1930361871402,-26.238751550770758,0.9387424990928821,154.1930361871402,-26.238751550770758,0.9387424990928821,154.1930361871402,-26.238751550770758,0.9387424990928821,154.1930361871402,-26.238751550770758,0.9387424990928821,0.0,0.828234157948606,127104.61737977143,0.0,0.0,0.0,1.0,0.8343912637632558,7331302.549684067,0.0,0.0,0.0,-239.659879875,2123.540142202417,23133.148195658574,152.09585200017315,318730.90682129987,-0.8877430740493026,0.6693979083304417,1.0,16.0,67.07153,-412.6007
Finger2,50.131562196792935,134.65537446312817,91.47208096602516,144.0778407003447,0.0,0.0,0.0,0.0,0.0,0.0,0.0,0.0,0.0,0.0,0.0,0.0,0.0,0.0,0.0,0.0,0.7966317180436664,3939195.4508843413,1.0,0.8388517908445906,5661603.525311053,0.0,0.0,0.0,0.0,0.0,0.0,0.0,0.0,0.0,0.0,0.0,0.0,0.0,0.0
Finger2,11.56694059302975,151.15884359997187,70.03728590659642,162.33170673155277,129.04476405908554,-0.5244082725284116,0.00129442892408968,129.04476405908554,-0.5244082725284116,0.00129442892408968,129.04476405908554,-0.5244082725284116,0.00129442892408968,129.04476405908554,-0.5244082725284116,0.00129442892408968,23.0,35.743779713781784,2.939672835460055E9,0.0,0.3510495415331282,1069134.922287295,3.0,4.60305501898396,1.4986608006791044E7,0.0,0.0,0.0,-2.012768121198156,20091.211628046098,48283.24373250507,219.73448462293092,2602070.2932350505,-0.34642773886492595,0.45068652505720846,15.0,217.0,577.66113,-454.29382
Finger2,71.67744421598402,165.05549278240255,92.32599062012613,198.91958475155576,205.86402814749624,-1.2382138774476061,-2.4451780109100127,205.86402814749624,-1.2382138774476061,-2.4451780109100127,205.86402814749624,-1.2382138774476061,-2.4451780109100127,205.86402814749624,-1.2382138774476061,-2.4451780109100127,1.0,1.6038477937304343,40106.57577960107,0.0,0.3337931002308411,3665037.433407439,0.0,0.0,0.0,0.0,0.0,0.0,-246.33849986666667,2253.458878100341,38178.41021974936,195.39296358812248,366588.6604404866,-0.39832972792239474,0.9828771167003116,1.0,15.0,196.58203,-428.51257
Finger2,76.99873724534304,189.00994534487089,58.97608306740189,202.22882389336795,86.32543167676056,-2.1505095498682465,0.0155620707103446,86.32543167676056,-2.1505095498682465,0.0155620707103446,86.32543167676056,-2.1505095498682465,0.0155620707103446,86.32543167676056,-2.1505095498682465,0.0155620707103446,26.0,35.224037211454224,1.1106867586718693E9,1.0,0.9175183001493094,1.8734729002416294E7,1.0,0.8319067353216553,1.1158349373929773E7,0.0,0.0,0.0,-15.457547460393268,10498.283721759057,28924.832490364854,170.07302105379574,1310537.3709956787,2.031437021010162,0.004219037009347704,11.0,178.0,485.3119,-472.42126
Finger2,106.8318941216936,224.97144748279882,80.02157761890696,244.08321512721,249.21099146785616,-3.573162078857422,-3.573162078857422,249.21099146785616,-3.573162078857422,-3.573162078857422,249.21099146785616,-3.573162078857422,-3.573162078857422,249.21099146785616,-3.573162078857422,-3.573162078857422,3.0,4.154178511810157,9444113.225329237,0.0,0.0,0.0,1.0,0.8362803075932135,1.5180533771382146E7,0.0,0.0,0.0,58.260943645945915,3830.6278735279284,59793.119344667815,244.52631626200852,586505.6313108652,-0.9592999359085033,0.7078001670448715,1.0,37.0,529.6234,-233.844
Finger2,20.596166259909,130.01152409463455,68.74045516927893,134.97499315288934,158.29906690338646,-2.059084868266485,0.011351954017782717,158.29906690338646,-2.059084868266485,0.011351954017782717,158.29906690338646,-2.059084868266485,0.011351954017782717,158.29906690338646,-2.059084868266485,0.011351954017782717,26.0,35.81865358441936,6.010743332549314E8,0.0,0.3608374531277865,740215.3411464705,1.0,0.8358785084513481,4821438.538031938,0.0,0.0,0.0,8.310372372857142,13805.768364001802,44638.06191464027,211.27721579630935,1705660.5416535027,-0.5032545780163811,0.4003947558269868,6.0,154.0,496.6919,-398.6023
Finger2,73.58065288516016,185.22541531673602,58.53553602687161,205.74964718588325,56.711745288637076,40.46680584508698,-2.544259970603111,56.711745288637076,40.46680584508698,-2.544259970603111,56.711745288637076,40.46680584508698,-2.544259970603111,56.711745288637076,40.46680584508698,-2.544259970603111,1.0,0.9017604340698732,469546.88491992274,0.0,0.7921462739579181,7929401.4022686025,1.0,0.8326444404396139,1.0684395239883225E7,0.0,0.0,0.0,280.99311088235294,2661.3723493835296,28932.49840135848,170.09555667729384,468212.10838363867,-1.3952701856753333,-0.48984478903093986,1.0,17.0,474.43542,-16.71753
Finger2,101.0745771321975,185.4632475886851,73.25807748734394,195.70366782539,81.78127648080908,36.616410504683245,-2.8387452689951544,81.78127648080908,36.616410504683245,-2.8387452689951544,81.78127648080908,36.616410504683245,-2.8387452689951544,81.78127648080908,36.616410504683245,-2.8387452689951544,0.0,0.9517160225850881,52743.28671591519,0.0,0.0,0.0,0.0,0.0,0.0,1.0,1.768629928239178,3.2561854682305083E7,-248.97177542857145,2152.0988521682893,33695.162121497466,183.5624202321855,356268.78725770145,-1.3104840325966924,0.5513891692276128,1.0,14.0,86.60889,-445.1294
Finger2,45.6334197035349,137.07521293956995,39.32022164600383,139.45645219444688,152.43714782358632,10.251135398785209,-3.440325160546763,152.43714782358632,10.251135398785209,-3.440325160546763,152.43714782358632,10.251135398785209,-3.440325160546763,152.43714782358632,10.251135398785209,-3.440325160546763,1.0,0.9780728074244806,85437.776208974,0.0,0.33430931622034066,1644383.1917025512,1.0,0.8350524421135327,5595392.735388639,0.0,0.0,0.0,180.53798631249998,1668.2090066997896,18342.72425963543,135.43531393117317,202454.40245799182,-1.4855690039736196,-0.3839069626792041,1.0,16.0,345.22705,-31.118774
Finger2,99.40247905972893,192.7103785167812,51.27567720033083,205.64361999915354,141.96310949296912,3.5739939453442844,-0.12658020895947786,141.96310949296912,3.5739939453442844,-0.12658020895947786,141.96310949296912,3.5739939453442844,-0.12658020895947786,141.96310949296912,3.5739939453442844,-0.12658020895947786,0.0,0.0,0.0,0.0,0.3553029636979461,1847525.7080595354,0.0,0.0,0.0,4.0,4.767150122680056,3951118.7544209654,21.08825510333336,4730.686964785202,110340.52356336391,332.17544093951904,839745.5871205465,-1.4525573259249918,-0.02306971798550296,2.0,30.0,497.09473,-476.14746
Finger2,76.92445098808965,212.00987294619176,27.817987253957682,233.5142177039561,240.65540472231237,-4.028606414794922,-4.028608322143555,240.65540472231237,-4.028606414794922,-4.028608322143555,240.65540472231237,-4.028606414794922,-4.028608322143555,240.65540472231237,-4.028606414794922,-4.028608322143555,1.0,1.947886753824662,2256930.0131357163,0.0,0.0,662141.3776084902,1.0,0.8327913259720721,1.3252765012348054E7,0.0,0.0,0.0,255.95828911176474,2472.3418869741186,36800.60362158967,191.83483422358324,437832.598253357,-1.6622103223503424,-0.07815236236722406,0.0,17.0,515.3229,3.7261963
Finger2,35.58535656118735,185.2177508297741,76.1822162629042,210.9403068163123,222.78707546498708,5.426755574923391,-5.804676557592757,222.78707546498708,5.426755574923391,-5.804676557592757,222.78707546498708,5.426755574923391,-5.804676557592757,222.78707546498708,5.426755574923391,-5.804676557592757,23.0,34.09727567400442,9.495129766218655E8,0.0,0.35668034010874555,1932301.4697092455,1.0,0.8447204350218375,9880113.727105467,0.0,0.0,0.0,-2.996599093351063,20999.134501668203,67146.06322474155,259.1255742390966,3136172.2891182187,-1.0160412326401487,0.15119371381191368,9.0,188.0,503.74146,-503.84216
Finger2,37.38831427954659,133.46656210341098,64.20424861158536,153.0913226056968,56.725814551290455,8.25030865782793,-0.3096978756483715,56.725814551290455,8.25030865782793,-0.3096978756483715,56.725814551290455,8.25030865782793,-0.3096978756483715,56.725814551290455,8.25030865782793,-0.3096978756483715,1.0,1.890787027336593,8738893.947063008,0.0,0.3543161597623917,1076623.5149678602,0.0,0.0,0.0,0.0,0.0,0.0,-29.261719444,2375.7183710208665,42247.07300495812,205.54092780990874,259292.48202318492,-1.5845758965512675,-0.3417751312858888,1.0,25.0,208.66699,-352.78015
Finger2,110.89831929910456,241.5247014924994,60.00200458946365,280.5849465428505,101.9915377747459,-1.534067767924654,0.015401658570377452,101.9915377747459,-1.534067767924654,0.015401658570377452,101.9915377747459,-1.534067767924654,0.015401658570377452,101.9915377747459,-1.534067767924654,0.015401658570377452,23.0,34.878033929961184,6.171318192730725E8,0.0,0.0,1066386.4897212083,0.0,0.0,0.0,0.0,0.0,0.0,20.72811898169014,13670.12564610574,51581.82674890846,227.11632867081235,1852804.0956622562,-0.31946126983591894,0.1422596151402298,8.0,142.0,599.11194,-411.49292
Finger2,62.28835483502663,206.33551279334245,53.242920018696445,228.1085284641869,46.06817114410842,-0.5011349000339429,0.0016123115841666091,46.06817114410842,-0.5011349000339429,0.0016123115841666091,46.06817114410842,-0.5011349000339429,0.0016123115841666091,0.0,0.0,0.0,46.0,70.91723805150963,3.6883796426650805E9,0.0,0.7991414609925375,9984762.343431287,0.0,0.0,0.0,0.0,0.0,0.0,-7.59783750599602,27894.021568167296,29236.836569922212,170.9878257944764,3674133.839328257,2.219215305538765,0.4128308306954529,45.0,502.0,633.35266,-518.54553
Finger2,108.51330810658692,281.75140337791106,59.124199435275074,297.7114827329306,298.01348861185,0.0,0.0,298.01348861185,0.0,0.0,0.0,0.0,0.0,298.01348861185,0.0,0.0,0.0,0.0,0.0,0.0,0.0,0.0,0.0,0.0,0.0,0.0,0.0,0.0,0.0,0.0,0.0,0.0,0.0,0.0,0.0,0.0,0.0,0.0,0.0
Finger2,14.050355293079072,74.65228264289699,33.587411468046604,118.29136793183459,106.57665188004921,-4.024391293163607,0.04637508706844434,106.57665188004921,-4.024391293163607,0.04637508706844434,106.57665188004921,-4.024391293163607,0.04637508706844434,106.57665188004921,-4.024391293163607,0.04637508706844434,0.0,0.7353163761650836,13541.736215891951,0.0,0.0,0.0,0.0,0.0,0.0,0.0,0.0,0.0,-14.834427271506833,3094.5588293092383,11702.898547274737,108.17993597370419,215014.79832373656,0.2788116337568307,-1.016988043877894,8.0,73.0,161.33423,-278.0548
Finger2,47.82381342970194,159.7679518536125,63.97433366955596,194.1151467971841,280.8830581130519,-6.239962102151708,0.04510837891271635,280.8830581130519,-6.239962102151708,0.04510837891271635,280.8830581130519,-6.239962102151708,0.04510837891271635,280.8830581130519,-6.239962102151708,0.04510837891271635,13.0,17.788993811783683,5.981637494239321E8,0.0,0.3528430382125231,1960956.7185921757,0.0,0.0,0.0,0.0,0.0,0.0,13.811629540085486,14293.125649265825,92428.57124881646,304.02067569298055,2689016.017239604,-0.06325305178092533,0.25163654294439347,8.0,117.0,740.7074,-627.713
Finger2,80.74420863080526,209.6159946860802,113.16864089866255,243.59680215012148,127.43060056523063,38.46984257386691,-3.3769597249226138,127.43060056523063,38.46984257386691,-3.3769597249226138,127.43060056523063,38.46984257386691,-3.3769597249226138,127.43060056523063,38.46984257386691,-3.3769597249226138,1.0,1.8103888102669181,63371.825948321,0.0,0.35383426328884,3133335.7883179346,0.0,0.0,0.0,0.0,0.0,0.0,-283.98938813571425,2519.0540686978043,67440.99493319026,259.6940410043909,495211.98340113275,-0.6253517963094275,0.9210961962382017,1.0,14.0,284.60083,-527.81067
Finger2,101.00822569233206,237.39705062554685,53.54188766185221,250.97227363498635,263.7174715378342,7.459206128088226,-5.846429005738628,263.7174715378342,7.459206128088226,-5.846429005738628,263.7174715378342,7.459206128088226,-5.846429005738628,263.7174715378342,7.459206128088226,-5.846429005738628,8.0,10.149183167952364,8.260440006364848E7,0.0,0.0,0.0,0.0,0.0,0.0,0.0,0.0,0.0,-42.71638041964286,7774.3603580650915,97584.65712821553,312.38543040323685,1406140.486109113,-0.920076106477624,0.13557662897070366,3.0,56.0,564.06555,-550.9735
Finger2,84.42379647091823,250.20842242998347,85.52868555788257,265.6954361490432,273.1420986199887,-2.0896663665771484,-2.0896663665771484,273.1420986199887,-2.0896663665771484,-2.0896663665771484,273.1420986199887,-2.0896663665771484,-2.0896663665771484,273.1420986199887,-2.0896663665771484,-2.0896663665771484,11.0,17.283429009152645,6.362079820725188E8,0.0,0.0,905906.8310423044,1.0,0.8296755646800195,1.8700984834160686E7,0.0,0.0,0.0,55.77545215897435,9999.16369219083,100708.19777610278,317.3455494821107,2016037.229699656,-0.5970013050912137,-0.060641803190647964,7.0,78.0,601.1261,-605.75867
Finger2,71.67237496074212,182.68531947213992,85.91676453792351,191.6126798753089,87.08225275783684,36.09297334293416,-3.0181692793971067,87.08225275783684,36.09297334293416,-3.0181692793971067,87.08225275783684,36.09297334293416,-3.0181692793971067,87.08225275783684,36.09297334293416,-3.0181692793971067,0.0,0.7887603675355311,189695.81218889024,0.0,0.0,0.0,0.0,0.0,0.0,1.0,1.80338249495553,3.359841117101538E7,-250.36729935714288,2031.7314738613109,29106.68904465285,170.60682590287192,325796.82212830975,-1.086808094573667,0.5043714041066296,1.0,14.0,76.638794,-471.01135
Finger2,55.78002720514616,176.45158316042054,66.37024143163858,173.52877060726513,192.00855729060504,-0.050198433221510186,-0.00793695722994281,192.00855729060504,-0.050198433221510186,-0.00793695722994281,192.00855729060504,-0.050198433221510186,-0.00793695722994281,192.00855729060504,-0.050198433221510186,-0.00793695722994281,10.0,18.060554296191604,4.71088168167804E8,1.0,0.8372220969354291,9443758.409848401,1.0,0.8345397516868599,9625797.99610479,0.0,0.0,0.0,25.158425330097067,16664.178550665438,124736.87178132248,353.1810750611115,3199817.7664490277,-1.3728438086262633,-0.025203221173886035,5.0,103.0,600.72327,-581.3873
Finger2,82.38990128132322,206.9929615047897,61.1334863632805,221.66129657562828,207.7402668740839,-25.410853540289963,0.042216147425932604,207.7402668740839,-25.410853540289963,0.042216147425932604,207.7402668740839,-25.410853540289963,0.042216147425932604,207.7402668740839,-25.410853540289963,0.042216147425932604,2.0,3.8799802825882352,7.521893377748911E7,0.0,0.7972540641469089,9393704.519257274,1.0,0.8351152836718764,1.3444641754471524E7,0.0,0.0,0.0,-2.4393715016666686,6115.3882658142,129293.06390615806,359.57344716505145,1155532.34676511,-1.5910180494439217,-0.06642681986615165,2.0,36.0,496.99402,-518.74695
Finger2,53.450948893769095,185.41006109970536,92.22166633397161,215.87951992052092,83.1001733111118,36.883202588344545,-2.659657810233984,83.1001733111118,36.883202588344545,-2.659657810233984,83.1001733111118,36.883202588344545,-2.659657810233984,83.1001733111118,36.883202588344545,-2.659657810233984,1.0,1.065573868993607,1708603.6978352917,0.0,0.3569246266280564,2180755.162118599,0.0,0.0,0.0,1.0,1.855772245798014,5.2775052565496564E7,-269.1862106875,2457.6113997199905,35612.45599868069,188.7126280848229,422348.27238295076,-0.19304293657865434,0.924160443600255,1.0,16.0,172.91565,-484.1034
Finger2,59.6691164765526,163.57886642734184,66.9345519131825,161.11266346278316,70.67950938415083,27.186816113791565,-1.4865745419370349,70.67950938415083,27.186816113791565,-1.4865745419370349,70.67950938415083,27.186816113791565,-1.4865745419370349,70.67950938415083,27.186816113791565,-1.4865745419370349,0.0,0.8221284904156706,61907.05537880665,1.0,1.6219807571799514,2.3012386674924906E7,0.0,0.0,0.0,0.0,0.0,0.0,-263.37661699999995,2907.2461314257243,22883.918202850975,151.27431441871082,462607.92691218026,-0.14529378274691052,1.0918765814268645,1.0,20.0,102.822876,-389.74
Finger2,104.54777905346074,216.7092031319465,55.38964244601503,250.93275505878043,217.4136177801746,-24.5504268288646,0.37761120105602686,217.4136177801746,-24.5504268288646,0.37761120105602686,68.15524649502044,-0.6157710894200816,0.0015932801735203776,68.15524649502044,-0.6157710894200816,0.0015932801735203776,52.0,71.65441635426333,1.0885105531030111E9,0.0,0.0,0.0,0.0,0.0,0.0,59.0,74.22885639632453,2.9575879866893554E9,0.0,0.0,0.0,0.0,0.0,0.0,0.0,0.0,0.0,0.0,0.0
Finger2,31.290733519497987,112.74624735834666,77.10978711635309,152.8250240171367,154.90574197234798,-1.1544022142358301,-0.0014282821683653246,154.90574197234798,-1.1544022142358301,-0.0014282821683653246,154.90574197234798,-1.1544022142358301,-0.0014282821683653246,154.90574197234798,-1.1544022142358301,-0.0014282821683653246,6.0,8.644341861750208,2.043361718089387E8,1.0,0.831718950674637,6940180.000116572,1.0,0.8357191995964411,4067034.7146326588,0.0,0.0,0.0,-115.2397993425926,6640.062405893164,58305.74922126692,241.4658344802985,950031.7857191397,-0.9746870929412874,0.5589109182252067,3.0,54.0,345.7306,-424.08142
Finger2,13.635730572582544,121.87036470093224,46.87564447526743,145.60806402060493,0.0,0.0,0.0,88.55652653859158,0.20671028230282218,-0.0034253025086061484,88.55652653859158,0.20671028230282218,-0.0034253025086061484,88.55652653859158,0.20671028230282218,-0.0034253025086061484,22.0,32.87773324182508,1.852090785478922E9,0.0,0.0,0.0,0.0,0.0,0.0,0.0,0.0,0.0,-17.386831185714282,13023.670437090173,34371.990160984176,185.39684506750424,1385610.1335786176,-0.8650466997785968,0.043998170137929296,7.0,161.0,403.6377,-336.36475
Finger2,78.48312173289065,163.44621464203576,74.70183057411877,172.62173167203088,69.4363324356392,30.873108818400397,-2.155918259374417,69.4363324356392,30.873108818400397,-2.155918259374417,69.4363324356392,30.873108818400397,-2.155918259374417,69.4363324356392,30.873108818400397,-2.155918259374417,1.0,0.8931229616849997,830239.7452491747,0.0,0.33430346663075206,2553423.947168623,1.0,0.826552132028197,8145767.250887678,0.0,0.0,0.0,245.76530437499997,2142.4157362483497,18454.832584530075,135.8485648968368,316483.2761053579,-0.9242300417374465,-0.613705847893437,1.0,16.0,403.43628,-36.95984
Finger2,126.45509392292948,267.81106143489745,130.1677300170964,295.22630593497956,268.7801014162128,-31.29999917463215,0.5370411628225611,268.7801014162128,-31.29999917463215,0.5370411628225611,268.7801014162128,-31.29999917463215,0.5370411628225611,268.7801014162128,-31.29999917463215,0.5370411628225611,5.0,7.94126117949181,1.4064208537851205E8,0.0,0.0,1173355.38615409,0.0,0.0,0.0,0.0,0.0,0.0,-125.17121892982456,9731.388817488269,123085.91861487369,350.83602810269315,1983178.8153066305,-1.4989997089996168,0.09430830982645791,3.0,57.0,419.54956,-634.0576
Finger2,49.64480255452961,140.46100021194462,34.111007513517976,204.20736262353316,219.31959674090172,1.8202562829812905,-1.22787729032882,219.31959674090172,1.8202562829812905,-1.22787729032882,219.31959674090172,1.8202562829812905,-1.22787729032882,219.31959674090172,1.8202562829812905,-1.22787729032882,23.0,35.52741729783099,6.030681854519703E8,1.0,1.6481661377815997,3.406715252843884E7,1.0,0.8357718052303127,6253079.393191255,0.0,0.0,0.0,-10.31559287438203,12304.073321198799,19399.998523753628,139.28387747242544,1303086.191563194,3.735114773230423,-0.06819021662488478,28.0,267.0,498.60535,-461.5448
Finger2,67.27852007395225,198.33704565805152,51.12118848850715,217.93817065418455,106.31694070199273,5.342612699022396,-0.1366613002771313,106.31694070199273,5.342612699022396,-0.1366613002771313,106.31694070199273,5.342612699022396,-0.1366613002771313,106.31694070199273,5.342612699022396,-0.1366613002771313,2.0,3.532090930104893,8.110332348529157E7,0.0,0.3548904599453729,2251464.663064999,1.0,0.8336591879967609,1.239380102536252E7,0.0,0.0,0.0,37.91512608571433,5029.737587258692,95743.09636021992,309.4238134989289,840170.5370982228,-1.274054450135068,-0.3974273258117065,2.0,35.0,442.00745,-492.26074
Finger2,83.65233159397118,209.49037246728474,96.38572776975799,234.27701000746302,0.0,0.0,0.0,179.24441440755362,-4.93046531386743,0.034498441865391916,179.24441440755362,-4.93046531386743,0.034498441865391916,179.24441440755362,-4.93046531386743,0.034498441865391916,3.0,2.6516362621044225,33914.47821517132,0.0,0.35364791873033896,2649381.996351285,0.0,0.0,0.0,0.0,0.0,0.0,-30.755615129242436,7180.105586835366,22913.051461444422,151.3705766040561,801113.9786847439,1.6554970890473495,-1.5492705014182053,9.0,132.0,141.19263,-518.84766
Finger2,51.64349585654705,183.6656334968867,70.84132944990245,203.3880577675347,128.65014433616693,-0.21068011431708555,0.014187588126554296,128.65014433616693,-0.21068011431708555,0.014187588126554296,128.65014433616693,-0.21068011431708555,0.014187588126554296,128.65014433616693,-0.21068011431708555,0.014187588126554296,7.0,9.812359438594845,1.391577604829107E8,0.0,0.8041050882770349,8037935.0454321075,0.0,0.0,0.0,0.0,0.0,0.0,-83.8394162089286,7688.369479514595,81219.93526397586,284.99111435968643,1221135.3795197597,-1.2692776628156122,0.3830026456475206,3.0,56.0,416.83044,-461.84692
Finger2,83.1999304548373,182.94504242888908,84.07229217004775,206.77143237580367,218.96699421329242,8.585057510209936,-4.20367332495141,0.0,0.0,0.0,218.96699421329242,8.585057510209936,-4.20367332495141,218.96699421329242,8.585057510209936,-4.20367332495141,1.0,1.0048553688953037,595264.2585094912,0.0,0.33394315398820473,3709464.5781023833,1.0,0.8370331227741086,1.036265069566852E7,0.0,0.0,0.0,270.74718531250005,2458.2109651458795,34161.30022986651,184.82775827744734,423183.6134538261,-0.6107835103658639,-0.7730390705372213,1.0,16.0,479.2694,-139.48059
Finger2,55.98167370889739,177.6451656415069,97.16688040069711,251.98261418577673,66.054780524649,10.329473861708038,-0.2495190961694167,66.054780524649,10.329473861708038,-0.2495190961694167,66.054780524649,10.329473861708038,-0.2495190961694167,66.054780524649,10.329473861708038,-0.2495190961694167,3.0,4.070317673630138,2.694807899399989E7,1.0,0.9081339164689852,2.500185415734728E7,0.0,0.0,0.0,0.0,0.0,0.0,-87.49748735294118,4914.472619010196,94405.66817749597,307.2550539494769,841644.8822532474,-1.7318092246424497,-0.1986373067912773,1.0,34.0,284.60083,-558.4259
Finger2,75.98258642736505,222.7256094859998,58.34652541575966,249.04339652707708,126.29306831926237,0.9559378097070521,-0.008859870996884123,126.29306831926237,0.9559378097070521,-0.008859870996884123,126.29306831926237,0.9559378097070521,-0.008859870996884123,126.29306831926237,0.9559378097070521,-0.008859870996884123,5.0,8.182364733220306,1.1279131865501215E8,0.0,0.3531716735141318,3092577.654550609,1.0,0.8345165519330179,1.5586545185466643E7,0.0,0.0,0.0,13.255906572881363,8495.690292757008,102111.06434476326,319.548219123129,1501314.0136144508,-1.2719384850889535,-0.046197538545917356,3.0,59.0,548.4558,-492.16003
Finger2,71.0252689594129,153.71535215036394,78.27150154063001,179.13632475826435,112.04519996441059,-1.8073029735472659,0.04552387363156196,112.04519996441059,-1.8073029735472659,0.04552387363156196,112.04519996441059,-1.8073029735472659,0.04552387363156196,112.04519996441059,-1.8073029735472659,0.04552387363156196,7.0,9.911004186902893,8.617673866565125E7,0.0,0.7929153933083607,6085910.408012957,0.0,0.0,0.0,0.0,0.0,0.0,-83.54597382758624,6395.7700364465645,50654.0208330585,225.06448150043246,834199.5891676145,-0.945830959969574,0.5141883784442066,3.0,58.0,364.6637,-412.3993
Finger2,47.64200948149547,155.9258120060887,55.8059593925406,182.07833554765935,37.43255751087759,3.839815856165444,-0.035624279482502796,37.43255751087759,3.839815856165444,-0.035624279482502796,37.43255751087759,3.839815856165444,-0.035624279482502796,37.43255751087759,3.839815856165444,-0.035624279482502796,0.0,0.0,0.0,0.0,0.0,0.0,0.0,0.0,0.0,7.0,9.134806442902143,1.8711521585837588E8,-42.333983745454546,5838.809210399779,56869.175532597714,238.47258863986383,800370.2693368752,-0.8109661713384875,0.3286128206278998,3.0,55.0,406.96106,-425.1892
Finger2,101.13484639244672,204.18560020410206,35.910355562125964,249.86586307158328,204.48641458923476,-25.726454039348027,1.0021237892597696,204.48641458923476,-25.726454039348027,1.0021237892597696,204.48641458923476,-25.726454039348027,1.0021237892597696,204.48641458923476,-25.726454039348027,1.0021237892597696,6.0,8.413861151137386,1.0679130196149716E8,1.0,0.8300994251581615,3.2603339161156543E7,1.0,0.8402640171330548,1.3156018558764668E7,0.0,0.0,0.0,-55.227325309375004,9588.546325819916,116365.28669203752,341.1235651373817,1916952.2051295368,-0.5164804601749782,0.6104604308227234,3.0,64.0,657.5226,-539.7949
Finger2,111.72500044241363,234.28802464340447,69.05320784880763,264.9861848706862,166.80131334765088,-0.24636579185519736,0.011366226589518691,166.80131334765088,-0.24636579185519736,0.011366226589518691,166.80131334765088,-0.24636579185519736,0.011366226589518691,166.80131334765088,-0.24636579185519736,0.011366226589518691,12.0,17.426878085382803,3.738436024283177E8,0.0,0.3337196642123986,6412022.187497038,1.0,0.8390809641357544,1.7145323124501556E7,0.0,0.0,0.0,-25.870031338157897,13605.242513568626,143685.01784778654,379.05806659110493,2750638.4592848998,-1.4416903501990725,0.22622287983505432,4.0,76.0,609.18274,-574.33777
Finger2,138.1797899903156,272.6669387160844,56.557149781616275,282.75727829217175,90.65650255545279,10.525645243169208,-0.20492433507948427,90.65650255545279,10.525645243169208,-0.20492433507948427,90.65650255545279,10.525645243169208,-0.20492433507948427,90.65650255545279,10.525645243169208,-0.20492433507948427,3.0,3.7778430329491277,4.3841914103937455E7,0.0,0.3335445274003299,7336735.6638924815,1.0,0.8340418121578993,2.2522075892980453E7,0.0,0.0,0.0,-75.64115482500003,5987.2362491051135,150768.8942905883,388.28970407491914,1279281.847183657,-1.6125912373676734,-0.12713573436785788,2.0,32.0,457.31506,-609.787
Finger2,149.59725331102229,239.72367334029025,101.45716665014704,273.6596558113268,173.96786561694785,0.5552171062895468,0.008920986679522347,173.96786561694785,0.5552171062895468,0.008920986679522347,173.96786561694785,0.5552171062895468,0.008920986679522347,173.96786561694785,0.5552171062895468,0.008920986679522347,6.0,9.15544961328813,2.5464101691069895E8,0.0,0.8008423563578525,1.44697601729775E7,0.0,0.0,0.0,0.0,0.0,0.0,-119.46018030508475,11809.369062138778,166037.93818094017,407.47753089089485,2680954.8090426396,-0.9715316909082725,0.6848417612878341,3.0,59.0,651.98364,-597.0978
Finger2,92.4839346799359,179.06630983941645,51.01348241470898,217.83763916892335,152.43227516550087,1.702106874221812,-0.06206321146599425,152.43227516550087,1.702106874221812,-0.06206321146599425,152.43227516550087,1.702106874221812,-0.06206321146599425,152.43227516550087,1.702106874221812,-0.06206321146599425,2.0,3.6957645712154843,7.721232590365255E7,0.0,0.3338590693127186,4419245.542672955,0.0,0.0,0.0,0.0,0.0,0.0,15.663056155882327,5359.989337132326,115172.0257271482,339.37004247155966,982431.7330071122,-1.4184723237716912,0.06435367585639774,2.0,34.0,535.06165,-471.6156
Finger2,31.070158829024738,124.10594416528481,71.16020891647304,164.08851833648214,83.26346659786805,26.28914345034559,-2.1146826725332275,83.26346659786805,26.28914345034559,-2.1146826725332275,83.26346659786805,26.28914345034559,-2.1146826725332275,83.26346659786805,26.28914345034559,-2.1146826725332275,0.0,0.742618137861573,137899.5664058875,0.0,0.7977455117840062,5158589.524264782,0.0,0.0,0.0,0.0,0.0,0.0,-216.27044715,1864.7061664987914,18564.402767129275,136.2512486809911,255228.83192923196,-1.1428421087465745,0.526814498554804,1.0,16.0,57.10144,-369.49768
Finger2,77.0340278070189,204.70246320384737,73.92661664469347,224.72223062609015,27.60401752977566,1.189403501561543,-0.0017049006366284258,27.60401752977566,1.189403501561543,-0.0017049006366284258,0.0,0.0,0.0,27.60401752977566,1.189403501561543,-0.0017049006366284258,11.0,17.271063396828602,7.322187487878969E8,0.0,0.7989550351299614,9707577.479146257,1.0,0.8380563830420803,1.3050658990543604E7,0.0,0.0,0.0,27.293845139411765,8948.199699995239,51210.26221206776,226.29684534272184,1319766.990453116,-0.28849157022790406,0.3473153947742128,4.0,102.0,518.1427,-460.53772
Finger2,109.93299971137161,223.74990316967458,60.077839607460746,214.99121056590948,75.81528580410054,-1.2266316041270109,0.004816913853365669,224.96012015398708,-23.421993566954484,0.03601957696776026,0.0,0.0,0.0,0.0,0.0,0.0,0.0,0.0,0.0,0.0,0.8007836568398724,8886499.286054004,0.0,0.0,0.0,0.0,0.0,0.0,0.0,0.0,0.0,0.0,0.0,0.0,0.0,0.0,0.0,0.0,0.0
Finger2,92.80454367797167,195.77065304251659,86.58130093041966,188.06490927567307,199.80088426557427,-40.02898914040975,3.5140472991909917,199.80088426557427,-40.02898914040975,3.5140472991909917,199.80088426557427,-40.02898914040975,3.5140472991909917,199.80088426557427,-40.02898914040975,3.5140472991909917,5.0,8.257682240683883,3.9049922786109763E8,1.0,0.9233464712728103,1.652604104637417E7,1.0,0.8353594798755466,1.1828821104366684E7,0.0,0.0,0.0,-2.2373508040540386,8862.885475902756,72398.97961913659,269.0705848269866,1331763.6224340764,-1.1006956334268956,0.0752817826607338,4.0,74.0,474.63684,-469.90356
Finger2,173.5827650717607,304.28629286099783,36.64495179033988,323.6116741112863,328.91938304249373,-3.7106151580810547,-3.7106151580810547,328.91938304249373,-3.7106151580810547,-3.7106151580810547,328.91938304249373,-3.7106151580810547,-3.7106151580810547,328.91938304249373,-3.7106151580810547,-3.7106151580810547,0.0,0.0,0.0,0.0,0.0,0.0,1.0,0.8362532255519651,2.823394614156966E7,0.0,0.0,0.0,3.4381243591472903,11767.63494456066,26239.056166410926,161.98474053567801,1793712.4952682252,7.170454105075267,-1.0440554876246892,33.0,258.0,513.4094,-684.81445
Finger2,84.06418120173363,206.57046756751882,98.6978408729879,238.69132503065876,102.82643980773946,38.683877745301174,-2.7350390971898975,102.82643980773946,38.683877745301174,-2.7350390971898975,102.82643980773946,38.683877745301174,-2.7350390971898975,102.82643980773946,38.683877745301174,-2.7350390971898975,1.0,0.9898499098641416,941631.4657830179,0.0,0.3338248904513791,5241571.827275008,1.0,0.8370624625060954,1.3391282174859742E7,0.0,0.0,0.0,-316.63227225,2895.839886872753,40237.522377469235,200.5929270374936,569785.7557848876,-0.4257753663078718,0.9251532472154289,1.0,16.0,141.19263,-516.5314
Finger2,84.63532158524156,178.5813599168837,98.65810000771963,212.12843634800373,99.07256962685005,32.2994123043145,-2.4921782207446412,99.07256962685005,32.2994123043145,-2.4921782207446412,99.07256962685005,32.2994123043145,-2.4921782207446412,99.07256962685005,32.2994123043145,-2.4921782207446412,1.0,0.8971577218872067,2093346.2651670922,0.0,0.0,0.0,1.0,0.840438276499705,1.0204028282095954E7,1.0,1.8770745063730199,5.4044784410282046E7,-293.8323974666666,2347.965943290698,17304.413345222605,131.5462403310053,397015.40498040465,-1.1021114260539313,0.32287488745139026,0.0,15.0,-30.715942,-471.41418
Finger2,60.8588842949384,197.90985781011284,61.28267578506916,208.5710667968945,199.426538943627,-23.67147431406147,-0.8737365006674338,220.419045328038,9.0386035033398,-2.0799902727250696,220.419045328038,9.0386035033398,-2.0799902727250696,199.426538943627,-23.67147431406147,-0.8737365006674338,22.0,32.177459025846105,8.975371417082561E8,1.0,0.8345778782394764,1.3159265276873332E7,0.0,0.0,0.0,0.0,0.0,0.0,-0.6643114117488784,12622.229957061343,25671.34938523018,160.22281168806825,1438450.0713536532,2.1276955251077654,-0.12504206353825745,14.0,223.0,464.56604,-465.97595
Finger2,139.48351479468474,280.1229189541078,84.96210476959385,297.9290168896012,311.495719127799,6.551231825328614,-5.8612340701824905,311.495719127799,6.551231825328614,-5.8612340701824905,311.495719127799,6.551231825328614,-5.8612340701824905,311.495719127799,6.551231825328614,-5.8612340701824905,11.0,16.32759835070123,6.173517818765315E8,0.0,0.3560148330528424,4251871.475131207,1.0,0.8379879014409157,2.4143311926109895E7,0.0,0.0,0.0,-40.94288637798162,18153.535636056564,135708.75253550312,368.38668886850826,3773589.4003773704,-1.057469201257463,0.37267788326753387,5.0,109.0,643.42346,-656.6162
Finger2,35.50179346185785,193.77098821109888,58.926211527863515,207.87465788231555,57.41630806557566,11.21209867465825,-0.3988462662033516,57.41630806557566,11.21209867465825,-0.3988462662033516,57.41630806557566,11.21209867465825,-0.3988462662033516,57.41630806557566,11.21209867465825,-0.3988462662033516,3.0,4.085158933525677,2.4233535249647573E7,0.0,0.0,242419.7974461025,0.0,0.0,0.0,0.0,0.0,0.0,-18.66320779999999,2844.6906002145947,64650.873780954826,254.26536095377762,392692.6851758542,-0.9597953558772043,-0.7104229059585243,1.0,25.0,250.2594,-540.09705
Finger2,93.5553793167052,168.61968939753953,50.62389712335809,181.13698571223134,173.76747597775585,-37.49876819230519,4.038201828236964,173.76747597775585,-37.49876819230519,4.038201828236964,173.76747597775585,-37.49876819230519,4.038201828236964,173.76747597775585,-37.49876819230519,4.038201828236964,12.0,16.833372384795197,5.570432362460371E8,0.0,0.0,0.0,1.0,0.8338060200406675,8836866.424128996,0.0,0.0,0.0,20.37812694027525,14584.005003056263,91201.16481775377,301.99530595317833,2487696.9787609153,-1.152855239785812,0.0390954809589678,5.0,109.0,560.6415,-514.1144
Finger2,91.70947702489575,249.38575850873403,43.235538939288794,286.0792196054785,197.4153382847394,-2.1231542641662458,0.007258061034475238,197.4153382847394,-2.1231542641662458,0.007258061034475238,197.4153382847394,-2.1231542641662458,0.007258061034475238,197.4153382847394,-2.1231542641662458,0.007258061034475238,7.0,9.632822281385248,1.2729336359219572E8,0.0,0.0,1195274.5839161,0.0,0.0,0.0,11.0,16.9009677621011,5.7462584890863E8,59.37247986376811,10272.889564844969,117917.90188022857,343.39176152061157,2098795.0606862246,-0.9499150826351292,-0.14688087162580055,3.0,69.0,604.7516,-607.2693
Finger2,60.36224858064147,148.74288081610814,72.20245776474486,156.72354132696677,215.6649293299804,-3.7495023894697255,0.03114213040508551,215.6649293299804,-3.7495023894697255,0.03114213040508551,215.6649293299804,-3.7495023894697255,0.03114213040508551,215.6649293299804,-3.7495023894697255,0.03114213040508551,11.0,16.770458343370017,3.5599619516054815E8,1.0,0.8348009388056721,7731126.239693694,0.0,0.0,0.0,0.0,0.0,0.0,-17.05127016279069,11330.748428966543,91248.5185777307,302.0736972623249,1954601.5190249549,-0.9787629275050067,-0.14053802756444483,3.0,86.0,528.5156,-603.7445
Finger2,118.17298149275379,229.0171473003121,61.74926933042388,243.84693667126356,69.43629878968159,-1.2229065513804223,0.005136130196512136,69.43629878968159,-1.2229065513804223,0.005136130196512136,69.43629878968159,-1.2229065513804223,0.005136130196512136,69.43629878968159,-1.2229065513804223,0.005136130196512136,44.0,68.27030407144234,2.2014529108922215E9,0.0,0.3548141284156329,2732772.1782699483,1.0,0.83714060263521,1.6247758591224167E7,0.0,0.0,0.0,-8.444233854835531,12648.32226393129,18539.089948877758,136.15832677026316,1457180.7755339963,3.9044189185066607,-0.8958406842339577,27.0,304.0,400.1129,-545.9381
Finger2,150.3370559782579,268.4760762233289,73.77815504773099,274.38773357768713,112.93591498773662,-2.512885627278507,0.08208038254806693,112.93591498773662,-2.512885627278507,0.08208038254806693,112.93591498773662,-2.512885627278507,0.08208038254806693,112.93591498773662,-2.512885627278507,0.08208038254806693,7.0,9.116810958535558,1.9403524705549374E7,0.0,0.0,834155.1394424835,1.0,0.8395424142981565,2.172926209509203E7,0.0,0.0,0.0,-50.16395683225808,8613.934148519558,95725.84012951868,309.3959277843176,1571272.8347657276,-0.8135568548535228,0.25346505444004674,2.0,62.0,525.6958,-617.8436
Finger2,61.58348238356554,167.19324938226373,49.30377555105011,196.13742032427567,171.74561618058777,-43.786386694969735,4.14380650799086,0.0,0.0,0.0,0.0,0.0,0.0,171.74561618058777,-43.786386694969735,4.14380650799086,1.0,0.8576592945445471,1939397.9832054337,0.0,0.35650802664649606,1833264.6796355187,1.0,0.8448501317940806,8529121.646602482,0.0,0.0,0.0,240.43740705882354,2193.3211935574113,20438.36584515477,142.96281280513045,332212.665712054,-1.5923961845354178,-0.09356492042328479,0.0,17.0,434.45435,34.84497
Finger2,47.66691485749496,142.45440579858072,41.99211105645548,142.39447741574207,73.20886543032123,-0.9249124594939246,0.03326593960455293,73.20886543032123,-0.9249124594939246,0.03326593960455293,145.34811605298705,-28.6578064678655,1.6965598255218453,73.20886543032123,-0.9249124594939246,0.03326593960455293,7.0,9.396460790333109,3.077893680312287E7,0.0,0.33594349927755096,1570049.0569799405,1.0,0.8398867832496739,6292773.660386584,0.0,0.0,0.0,43.43935425490566,4209.9567664841,28796.369206729734,169.69492982033887,404460.40096487565,-1.2083035042430117,0.1263257788286286,3.0,53.0,362.85095,-214.00452
Finger2,62.369441597964,173.0676176817,40.170043222975536,193.34690428173457,173.6081845094227,-24.131060853099484,0.33426557135001644,173.6081845094227,-24.131060853099484,0.33426557135001644,173.6081845094227,-24.131060853099484,0.33426557135001644,173.6081845094227,-24.131060853099484,0.33426557135001644,1.0,0.928998499002783,1003921.4108556228,0.0,0.0,0.0,1.0,0.8440565074416888,9730213.516274828,2.0,3.679750234383067,6.485916208075714E7,238.0681362722222,2443.565246384228,27539.586282981123,165.95055372905847,384056.8777530624,-1.336234233217109,-0.4111743721826056,1.0,18.0,455.80444,-40.182495
