Klasse,minimumSteigungWert,maximumSteigungWert,minimumSenkungWert,maximumSenkungWert,steigungA,steigungB,steigungC,senkungA,senkungB,senkungC,mittelA,mittelB,mittelC,gesamtA,gesamtB,gesamtC,fftAnfangMedian,fftAnfangMittel,fftAnfangPSD,fftMitteMedian,fftMitteMittel,fftMittePSD,fftEndeMedian,fftEndeMittel,fftEndePSD,fftGesamtMedian,fftGesamtMittel,fftGesamtPSD,mittelwert,signalstärke,varianz,standardabweichung,energie,kurtosis,schiefe,zeroCrossings,laenge,maximalwert,minimalwert
Finger1,166.4140516073799,476.4750862262797,85.62264822433688,521.3069747582097,158.7938293809134,3.761981581098709,-0.023536158802030638,489.4834032419145,-121.19512348840408,10.895165995208288,0.0,0.0,0.0,0.0,0.0,0.0,0.0,0.0,0.0,0.0,0.0,0.0,0.0,0.0,0.0,25.0,36.74598245720876,9.301129140280266E9,29.565076745722543,44552.959675843966,346003.0412228535,588.2202319054094,1.4974119233392747E7,-0.5346995505517276,-0.18993352858771412,13.0,173.0,1208.5968,-1429.5502
Finger1,421.94565083973873,817.2553490559526,104.36782384926545,829.2313466543593,883.8783291482854,0.13285064697265625,0.13285064697265625,883.8783291482854,0.13285064697265625,0.13285064697265625,883.8783291482854,0.13285064697265625,0.13285064697265625,883.8783291482854,0.13285064697265625,0.13285064697265625,31.0,41.63701332074377,6.3557437789814E9,0.0,0.0,5679904.204364602,1.0,0.8370928314694993,1.9276054319387534E8,0.0,0.0,0.0,49.0650548368715,42341.76624766604,334472.1776509742,578.3356963312693,1.5293312388454514E7,1.1161202758127953,0.6515644891940189,11.0,179.0,1994.4214,-1413.9404
Finger1,67.76076864802393,526.0962152018499,182.30822071608108,556.2415486084903,182.14518634379328,137.0599650067827,-12.64034881462399,182.14518634379328,137.0599650067827,-12.64034881462399,182.14518634379328,137.0599650067827,-12.64034881462399,182.14518634379328,137.0599650067827,-12.64034881462399,1.0,1.039068622500564,1816459.609332543,0.0,0.0,0.0,0.0,0.0,0.0,0.0,0.0,0.0,-548.6339846153846,4842.337965314222,411321.713658569,641.3436782713064,2175021.3346834676,-1.765783644475617,0.24760180083394312,1.0,13.0,313.70544,-1291.1774
Finger1,60.62025295276642,264.4992525284645,123.36679114923679,284.04919812522576,301.9187934357692,-2.870922088623047,-2.870922088623047,301.9187934357692,-2.870922088623047,-2.870922088623047,301.9187934357692,-2.870922088623047,-2.870922088623047,301.9187934357692,-2.870922088623047,-2.870922088623047,2.0,2.5968370592183105,4309488.556822653,0.0,0.0,417630.3769451584,3.0,4.022637971813439,1.3221973562292227E8,0.0,0.0,0.0,-154.27987276190478,5778.311971342977,67502.43557316207,259.8123083557861,937595.6678376831,-0.47459614308675446,0.03925091301848796,4.0,42.0,314.20898,-728.92456
Finger1,135.7822231227074,369.49548936630833,140.06739375867787,458.9733057158901,316.21716694206384,-22.80736145582773,0.7459202080110288,251.05996284258026,33.96377473002269,-2.7224976389904825,251.05996284258026,33.96377473002269,-2.7224976389904825,251.05996284258026,33.96377473002269,-2.7224976389904825,0.0,0.7744579236869714,1106573.361058902,0.0,0.0,0.0,0.0,0.0,0.0,0.0,0.0,0.0,234.94585982352942,4814.2362661877905,313303.5640337755,559.7352624533991,1553104.179086742,-1.2677160219991082,0.06020194365705865,1.0,17.0,1132.7637,-602.93884
Finger1,126.72704072820603,350.22594115439915,192.96498324288046,360.5922586243498,183.75869348255173,1.6412752818793592,-0.009266403775249898,183.75869348255173,1.6412752818793592,-0.009266403775249898,183.75869348255173,1.6412752818793592,-0.009266403775249898,183.75869348255173,1.6412752818793592,-0.009266403775249898,25.0,34.7925523577048,1.811258544618712E10,0.0,0.0,1396195.1733454212,2.0,2.3750991633490113,2.8903548369817466E7,0.0,0.0,0.0,-26.012466881632673,44301.92067023004,281405.2752439856,530.4764605936682,1.3780727049715633E7,0.05141097085672364,0.47787855354613484,15.0,196.0,1489.8743,-1190.9729
Finger1,257.858825695034,522.9363663635646,75.25991603833704,608.027279842851,309.5029766520206,-7.41583799585473,0.06260892218976055,309.5029766520206,-7.41583799585473,0.06260892218976055,309.5029766520206,-7.41583799585473,0.06260892218976055,309.5029766520206,-7.41583799585473,0.06260892218976055,0.0,0.0,0.0,0.0,0.0,0.0,0.0,0.0,0.0,0.0,0.0,0.0,0.0,0.0,0.0,0.0,0.0,0.0,0.0,0.0,0.0,0.0,0.0
Finger1,168.50866958891143,385.06283294248107,211.7271745460566,433.22978824451155,422.74529878342486,0.0,0.0,422.74529878342486,0.0,0.0,422.74529878342486,0.0,0.0,422.74529878342486,0.0,0.0,2.0,3.6958831612941676,1.9815266520301813E8,0.0,NaN,0.0,2.0,2.6017001657031584,4.128883944897769E7,0.0,0.0,0.0,-129.80347112121206,8708.709573485998,307135.656216313,554.1982102247472,2624347.6449308284,-0.8128761319584887,0.6499269230520001,2.0,33.0,1026.6174,-837.5885
Finger1,43.264898515150676,332.59107903151806,115.31555269235781,353.5422349699938,339.7088913977429,-55.91528256162178,-1.0144388699266074,339.7088913977429,-55.91528256162178,-1.0144388699266074,339.7088913977429,-55.91528256162178,-1.0144388699266074,100.95878679315638,84.00350207933843,-6.973255680323213,1.0,0.8610453285784946,2723324.939255098,0.0,0.0,0.0,0.0,0.0,0.0,0.0,0.0,0.0,453.72554257142855,3346.645303148849,73834.66242943027,271.72534373780866,954864.5488156119,-1.8018301596961037,-0.08526004380822237,0.0,14.0,780.38635,99.298096
Finger1,13.515355994098039,227.91850092277468,85.40562236245592,289.6763751097467,233.58774010910676,-84.1151007557574,7.83695749799265,0.0,0.0,0.0,0.0,0.0,0.0,0.0,0.0,0.0,0.0,0.0,0.0,0.0,0.0,0.0,0.0,0.0,0.0,0.0,0.0,0.0,0.0,0.0,0.0,0.0,0.0,0.0,0.0,0.0,0.0,0.0,0.0
Finger1,76.117098658447,340.87216220408214,88.66398661381793,422.9980333843425,149.23207641334056,3.6875563550027124,-0.02590998368092856,149.23207641334056,3.6875563550027124,-0.02590998368092856,149.23207641334056,3.6875563550027124,-0.02590998368092856,0.0,0.0,0.0,0.0,0.0,0.0,0.0,0.0,1839099.425956,0.0,0.0,0.0,0.0,0.0,0.0,-6.823753906250015,31173.47431038206,297225.99304663413,545.1843661062138,9450356.714157427,-0.44174393551090985,0.5815891656368312,8.0,128.0,1391.3818,-990.26184
Finger1,54.47192164783862,269.28610569446073,78.79665915095796,281.1522763603015,278.8535073091231,-81.29233008744274,6.948846276577953,346.4183060198959,-4.721634324697774,0.032820927092303,346.4183060198959,-4.721634324697774,0.032820927092303,346.4183060198959,-4.721634324697774,0.032820927092303,13.0,17.46352418264074,1.1997686175853329E9,0.0,0.0,0.0,1.0,0.8460331194633934,1.7846642285997223E7,0.0,0.0,0.0,-4.780141801980208,22248.956253430697,252991.50446984055,502.9826085162792,6330695.360954309,-0.8111838023184599,0.2930222591863324,7.0,101.0,1102.652,-848.8678
Finger1,122.70071775659771,340.79699860602904,55.494205805753666,358.093343182241,-11.865098686058218,65.34206882701687,-3.3629384253967842,-11.865098686058218,65.34206882701687,-3.3629384253967842,-11.865098686058218,65.34206882701687,-3.3629384253967842,-11.865098686058218,65.34206882701687,-3.3629384253967842,1.0,1.8489631182122612,3376684.463969382,0.0,0.0,0.0,0.0,0.0,0.0,0.0,0.0,0.0,-223.89068823333335,3780.9196647326708,171334.11028446106,413.9252472179742,992242.6629052585,-1.6302949546244636,-0.22325001853966991,3.0,18.0,318.43872,-836.1786
Finger1,188.24861038970857,583.8822795673808,66.08733901924617,706.186805320919,518.6878147114192,-76.27315736748074,4.818186777848595,108.08452864271203,2.006276232686801,-0.0065466695942423825,721.3415961212372,-22.77078628540039,-22.770790100097656,108.08452864271203,2.006276232686801,-0.0065466695942423825,28.0,37.95956232966722,9.859848238120016E9,0.0,0.0,4266793.999009363,1.0,2.215679124904915,6.151479721718388E7,0.0,0.0,0.0,-3.485394216831653,44709.05938955621,268563.5945759814,518.231217292032,1.36230367303209E7,0.21646153504052146,0.5075947372016738,16.0,202.0,1722.9126,-961.25793
Finger1,162.17967498407685,364.50361229449226,244.50614675731248,423.7831259712118,386.6597700918587,-2.2261219500587117,0.012587125821128864,386.6597700918587,-2.2261219500587117,0.012587125821128864,386.6597700918587,-2.2261219500587117,0.012587125821128864,386.6597700918587,-2.2261219500587117,0.012587125821128864,25.0,35.370292193109925,9.688865299512655E9,0.0,0.0,2593458.37391524,1.0,0.8259455633175853,6.317688199746073E7,0.0,0.0,0.0,16.88732571046515,54931.948197987214,530493.5860119928,728.3499063032773,2.2710388315714587E7,-0.26576493231027953,0.6102951055708036,14.0,172.0,2165.5242,-1280.7037
Finger1,504.5381043102646,1176.5153279729043,69.09641612702946,1267.2273611381322,1265.3265541764658,0.0,0.0,0.0,0.0,0.0,1265.3265541764658,0.0,0.0,1265.3265541764658,0.0,0.0,15.0,19.38263424626453,3.0003760862648444E9,0.0,NaN,0.0,1.0,0.8324442953507374,3.960970340347784E8,14.0,17.779567669106562,1.1132199184180973E10,157.76194362358487,40710.5571951351,876764.3525778129,936.3569578840181,2.414002490256807E7,0.27749100616994493,0.6192520919857111,9.0,106.0,2786.792,-1459.3597
Finger1,221.13241590800703,496.2075136661884,61.508305093992945,554.4185983363177,181.18653483983917,-7.181633741614604,0.10922486517888519,181.18653483983917,-7.181633741614604,0.10922486517888519,181.18653483983917,-7.181633741614604,0.10922486517888519,181.18653483983917,-7.181633741614604,0.10922486517888519,13.0,18.031849845326064,5.546730306585643E8,0.0,NaN,0.0,2.0,2.2983433443893886,6.161026145466224E7,0.0,0.0,0.0,68.993797173,10670.70749951291,132279.75746125577,363.70284225072504,2868679.709630114,2.6314279570808194,1.3669346215489404,8.0,80.0,1306.5857,-653.39355
Finger1,159.4940446135327,467.0292854669296,103.95692418378671,505.8383975075692,470.700324167261,-63.576762605730664,0.12087219902826973,470.700324167261,-63.576762605730664,0.12087219902826973,470.700324167261,-63.576762605730664,0.12087219902826973,470.700324167261,-63.576762605730664,0.12087219902826973,15.0,18.40084778469021,4.281664302690548E9,0.0,0.35374896556396335,1.273919973493319E7,0.0,0.0,0.0,15.0,18.2147520169239,5.778558333034027E9,0.027082995798320148,35759.09297440402,499919.4611506201,707.049829326491,1.4838432050536832E7,-0.17969247877289352,0.16334319082717635,12.0,119.0,1796.7316,-1560.7727
Finger1,204.95351312444137,413.0688777486938,141.72380054183398,450.7505132383264,464.7860640094018,-8.390228271484375,-8.390228271484375,464.7860640094018,-8.390228271484375,-8.390228271484375,464.7860640094018,-8.390228271484375,-8.390228271484375,464.7860640094018,-8.390228271484375,-8.390228271484375,7.0,8.596925997196765,7.196347782121028E8,0.0,0.0,2416559.79002944,0.0,0.0,0.0,0.0,0.0,0.0,43.505858857142755,10083.675214890567,282514.3195639597,531.5207611786766,3043816.7885278207,-0.7795938848688531,-0.4473362556646723,4.0,42.0,867.7002,-1005.1666
Finger1,187.22881973663158,426.47149772083174,224.13548501826742,451.8772604538299,429.2159933687242,-52.599496433946115,0.7131987465168095,260.35533301619444,-1.1214178529078254,0.008032671250587597,260.35533301619444,-1.1214178529078254,0.008032671250587597,260.35533301619444,-1.1214178529078254,0.008032671250587597,0.0,0.0,0.0,0.0,0.0,0.0,1.0,0.8331977313821377,5.483605932289515E7,0.0,0.0,0.0,-52.40739235116277,41795.56731986648,299589.5923441201,547.3477800668603,1.3007790155070126E7,-0.6112845517614542,0.2025583149979046,13.0,172.0,1329.6478,-1042.0258
Finger1,136.91450095618637,322.0833913440783,86.43417912948352,345.75830636593764,160.1739420731351,1.8292031608195316,-0.008431126546292522,160.1739420731351,1.8292031608195316,-0.008431126546292522,160.1739420731351,1.8292031608195316,-0.008431126546292522,160.1739420731351,1.8292031608195316,-0.008431126546292522,26.0,37.62861103921233,5.217428840388075E9,0.0,0.0,1215175.2138420197,0.0,0.0,0.0,0.0,0.0,0.0,7.985615121052633,44151.94093615791,299343.19509492454,547.1226508699165,1.4226217843013523E7,0.20696134205323613,0.24456889681992325,16.0,190.0,1738.9252,-1211.5173
Finger1,352.9349337618403,794.8713745598935,139.26709119368067,840.3222627593607,816.9200611076142,-185.46870539859083,17.734625607319572,0.0,0.0,0.0,816.9200611076142,-185.46870539859083,17.734625607319572,0.0,0.0,0.0,0.0,0.0,0.0,0.0,0.0,0.0,1.0,0.8207665685232003,1.6465315313085064E8,0.0,0.0,0.0,0.0,0.0,0.0,0.0,0.0,0.0,0.0,0.0,0.0,0.0,0.0
Finger1,53.3014867278878,206.9728372681753,134.3756248952027,268.11472558990255,426.3161087587041,-6.099551932878008,0.028491867389090597,0.0,0.0,0.0,426.3161087587041,-6.099551932878008,0.028491867389090597,0.0,0.0,0.0,24.0,35.11007822548678,6.519424648885836E9,0.0,0.0,0.0,0.0,0.0,0.0,0.0,0.0,0.0,0.0,0.0,0.0,0.0,0.0,0.0,0.0,0.0,0.0,0.0,0.0
Finger1,138.65985342321693,416.6373094778741,134.40700037421018,482.06676445093484,370.8631143995808,-11.887478241755076,0.20460615457454967,370.8631143995808,-11.887478241755076,0.20460615457454967,370.8631143995808,-11.887478241755076,0.20460615457454967,370.8631143995808,-11.887478241755076,0.20460615457454967,5.0,7.991466599368686,8.770215145094045E8,0.0,0.3349140297241763,2.010493760533758E7,0.0,0.0,0.0,0.0,0.0,0.0,32.23792904193552,16377.611511643145,349273.4887195214,590.9936452446179,5419894.411835175,-0.5483758064253896,-0.09355503167860425,6.0,62.0,1333.8776,-1102.4506
Finger1,83.09653806328626,296.07634812340194,82.3094107131715,338.4825838657075,254.67533303472055,-21.066730156027234,0.6524029909563254,254.67533303472055,-21.066730156027234,0.6524029909563254,254.67533303472055,-21.066730156027234,0.6524029909563254,254.67533303472055,-21.066730156027234,0.6524029909563254,3.0,2.361677552272285,54934.51641819385,0.0,0.0,702904.7842899889,0.0,0.0,0.0,0.0,0.0,0.0,105.50282911111111,3644.6381387037995,185440.1126062569,430.6275799414814,864425.8768716529,-1.3028796660619208,0.4285003990703194,2.0,18.0,870.2179,-402.73132
Finger1,61.801966018234616,222.98087582999983,92.27318111090051,258.4423950269595,374.9692468742669,-3.244426478700845,0.012402087879334056,0.0,0.0,0.0,374.9692468742669,-3.244426478700845,0.012402087879334056,0.0,0.0,0.0,0.0,0.0,0.0,0.0,0.0,724342.9197122245,0.0,0.0,0.0,0.0,0.0,0.0,0.0,0.0,0.0,0.0,0.0,0.0,0.0,0.0,0.0,0.0,0.0
Finger1,85.4386602195098,302.49964284461953,249.37901633689881,340.32687737467796,0.0,0.0,0.0,287.0010963806292,-2.7420418176773467,0.020411623063497752,281.50183653692284,-2.3929201514900598,0.017002484483998437,0.0,0.0,0.0,0.0,0.0,0.0,0.0,0.0,0.0,0.0,0.0,0.0,0.0,0.0,0.0,-48.94570095839996,27579.44654021471,265819.97212892823,515.5773192537936,8222168.314143541,-0.29932113582619513,0.08988994528083209,13.0,125.0,1059.549,-1297.9248
Finger1,132.8928258626012,273.65311836621504,240.03001144826575,316.25391059663224,535.0910244766915,-11.622405287471793,0.10000051514215436,535.0910244766915,-11.622405287471793,0.10000051514215436,535.0910244766915,-11.622405287471793,0.10000051514215436,535.0910244766915,-11.622405287471793,0.10000051514215436,7.0,8.672391994150148,5.845688590576035E8,0.0,0.0,0.0,3.0,4.593843997130541,6.013071742535341E7,7.0,9.34017886390521,1.4342256566046033E9,110.50048909090913,17566.26229416822,491166.3381742847,700.8326035326016,6729235.981876796,-1.1215650369286458,0.07501697260801504,5.0,55.0,1391.684,-1000.0305
Finger1,146.11750688267958,579.519343717159,193.89682688462005,610.620533303512,646.6275479996112,-4.207061767578125,-4.207061767578125,204.0675001818695,144.61747151399322,-13.101732862176078,204.0675001818695,144.61747151399322,-13.101732862176078,204.0675001818695,144.61747151399322,-13.101732862176078,3.0,2.2426536816607414,159861.50572607087,0.0,0.0,3196116.2095922497,0.0,0.0,0.0,0.0,0.0,0.0,669.1427230769231,5416.913922082003,398980.4861887537,631.6490213629352,2654893.762904909,-1.5501044021768924,-0.2885883003356236,1.0,13.0,1445.5627,-357.2113
Finger1,78.15388882637495,306.06058328088614,118.25266106822656,329.25105870169915,257.6899089811609,-2.0518415923263547,0.028691006462577384,257.6899089811609,-2.0518415923263547,0.028691006462577384,257.6899089811609,-2.0518415923263547,0.028691006462577384,257.6899089811609,-2.0518415923263547,0.028691006462577384,7.0,8.891117219604103,4.753560611043231E8,0.0,0.0,1233449.9297545685,0.0,0.0,0.0,0.0,0.0,0.0,7.3613681538461355,11985.320078387791,249180.57173954314,499.1798991741786,3182747.878765653,-1.2903100593333967,0.24714265803568997,4.0,52.0,907.47986,-749.5697
Finger1,59.40273523180785,231.24095651515435,71.84903378310914,275.9510818924972,123.08461638920107,6.15388990241923,-0.030696919837602032,123.08461638920107,6.15388990241923,-0.030696919837602032,123.08461638920107,6.15388990241923,-0.030696919837602032,123.08461638920107,6.15388990241923,-0.030696919837602032,28.0,35.82332529304462,3.862509426381258E10,0.0,0.35604580560053084,3197730.140968588,0.0,0.0,0.0,0.0,0.0,0.0,0.0,0.0,0.0,0.0,0.0,0.0,0.0,0.0,0.0,0.0,0.0
Finger1,198.3208030056244,403.2417260924661,169.77658531685867,444.3045463506689,369.50904164591066,-0.6126264376586619,-0.005922484834215425,0.0,0.0,0.0,369.50904164591066,-0.6126264376586619,-0.005922484834215425,0.0,0.0,0.0,7.0,8.901226839533708,5.924614625228267E8,0.0,0.0,2076860.259695928,1.0,0.8505953247247654,5.157827278999911E7,6.0,8.26980078853087,4.4963878568389034E8,-136.1708805423729,20357.62813546737,504779.918396226,710.4786544268773,7704871.767884236,-1.3508532897941434,0.19109510560621498,5.0,59.0,1247.0673,-1093.1854
Finger1,171.7929535756036,551.8038599001012,140.14506186304234,613.4256627355243,649.0242899140662,18.225903303728046,-17.389219171692275,649.0242899140662,18.225903303728046,-17.389219171692275,649.0242899140662,18.225903303728046,-17.389219171692275,649.0242899140662,18.225903303728046,-17.389219171692275,1.0,1.122221048391931,1201360.1650496416,0.0,0.35477909629259946,1.5912486725742454E7,1.0,0.8385239600440301,9.566978493513662E7,0.0,0.0,0.0,713.9123482,6346.157392744284,319061.09452243586,564.8549322812325,3131378.7151213815,-1.5370468811589693,-0.2793454440807318,1.0,15.0,1429.248,-204.9408
