Klasse,minimumSteigungWert,maximumSteigungWert,minimumSenkungWert,maximumSenkungWert,steigungA,steigungB,steigungC,senkungA,senkungB,senkungC,mittelA,mittelB,mittelC,gesamtA,gesamtB,gesamtC,fftRealTeil,fftImgTeil
Finger1,2101.859682216618,2102.1130762457756,186.47263164429458,212.43764677809222,2101.859653160537,0.1267242431640625,0.126708984375,215.00064075593673,-9.011650080204504,0.6527917031093722,2102.113074121399,944.837656505957,-944.8376827267102,2063.898443000582,-519.5945869898937,32.06737334743391,7146.094670266872,0.0,-5006.1771524244905,2880.411332163969,-4024.7713852411184,3565.5486746534816,1692.8800061241045,-2965.7904774133654,-4070.819144892336,3075.275525374536,1491.1883569725028,-3390.8066564005403,505.2704702388546,-2735.9532336370316,561.3625558987255,1493.899824254843,-7146.094670266872,0.0,5006.1771524244905,-2880.411332163969,4024.7713852411184,-3565.5486746534816,-1692.8800061241045,2965.7904774133654,4070.819144892336,-3075.275525374536,-1491.1883569725028,3390.8066564005403,-505.2704702388546,2735.9532336370316,-561.3625558987255,-1493.899824254843
Finger1,31.18380904909058,34.79640844107532,39.17336982069419,39.41218440684236,31.286911838470132,0.6495336205474871,0.007920914398411583,39.442860464866726,2.068978860481991,-0.7230115159357808,2102.113074121399,944.837656505957,-944.8376827267102,30.61779511177835,1.1217357712766614,0.004586733354706496,357.96328013750167,0.0,-94.493027589392,190.64753395686756,-128.88133861977502,199.4943192220081,0.9913738944526749,-58.58883564081693,-178.64269757544403,179.32058256205767,-37.63061208029055,-112.61634778206985,-20.85162164656407,-95.62967961644095,8.378903062333748,10.447191963412614,-357.96328013750167,0.0,94.493027589392,-190.64753395686756,128.88133861977502,-199.4943192220081,-0.9913738944526749,58.58883564081693,178.64269757544403,-179.32058256205767,37.63061208029055,112.61634778206985,20.85162164656407,95.62967961644095,-8.378903062333748,-10.447191963412614
Finger1,6.807572237115902,16.43161585816126,14.59328204647888,15.761625642226349,6.591013061076836,1.2592273542421992,0.6977199844318278,15.761625422961789,-0.5841715335845947,-0.5841716527938843,16.315886670356207,0.7674630887540275,-0.3045468063012393,5.598594451337362,4.695340249190622,-0.4880094006753044,107.93696654947968,0.0,-19.394933137107422,67.79503028092601,-52.09903569075128,55.83793085872839,-15.695994590174738,-23.91919889294331,-107.93696654947968,0.0,19.394933137107422,-67.79503028092601,52.09903569075128,-55.83793085872839,15.695994590174738,23.91919889294331
Finger1,9.830831646132438,10.436752353674862,68.24170555892803,79.08886879805563,9.830831510942243,0.30296045541763306,0.3029603958129883,80.93027469110882,3.283987083748343,-0.472289334410263,7.549472948258199,6.4203136113828805,0.549574589655542,-0.14267341289291835,14.243294264198681,-0.5859245021631931,1197.1777492693898,0.0,9.629957264327288,745.3129060596324,-192.9767565371553,721.7157027467373,-195.46567097424781,-18.360207232277773,-317.4476628765683,733.4083569434162,-332.14175344354857,-133.03047929965828,-184.82500402623788,-171.75123390024675,-23.78306248360168,-14.410934573662935,-619.9489405962418,577.228808673148,-312.79748649420947,-314.36290080471946,-174.72832472646348,-365.3461645388252,34.41606704069943,-48.16069657583003,-113.45941634717434,-347.99062634912843,115.42949031831803,-11.99152919276878,84.73109235397187,32.145946418298934,-34.18979689362616,-19.304622149830053,-1197.1777492693898,0.0,-9.629957264327288,-745.3129060596324,192.9767565371553,-721.7157027467373,195.46567097424781,18.360207232277773,317.4476628765683,-733.4083569434162,332.14175344354857,133.03047929965828,184.82500402623788,171.75123390024675,23.78306248360168,14.410934573662935,619.9489405962418,-577.228808673148,312.79748649420947,314.36290080471946,174.72832472646348,365.3461645388252,-34.41606704069943,48.16069657583003,113.45941634717434,347.99062634912843,-115.42949031831803,11.99152919276878,-84.73109235397187,-32.145946418298934,34.18979689362616,19.304622149830053
Finger1,13.457707981671312,80.52479755342173,62.26901099974922,74.95160992491279,11.879578688539652,7.493626073457108,-0.058049892002692616,74.95160905238231,-7.935294018194668,0.7969974850236667,80.52479680390576,2.7865947573998255,-2.7865940914817884,6.107276331429318,11.95088481451856,-0.5324011470514947,806.0648862997011,0.0,-102.386693222242,546.1588444751693,-224.7797175121002,494.58213711765814,-229.1542524053782,-140.18257181441447,-423.7796573514603,382.2852289482409,-196.69276739684688,-305.02409950732795,-70.80247976619782,-249.5313789224502,107.87603180711301,-43.772224975778684,-806.0648862997011,0.0,102.386693222242,-546.1588444751693,224.7797175121002,-494.58213711765814,229.1542524053782,140.18257181441447,423.7796573514603,-382.2852289482409,196.69276739684688,305.02409950732795,70.80247976619782,249.5313789224502,-107.87603180711301,43.772224975778684
Finger1,24.474806309707308,25.304543613586404,26.665278228717142,29.88150982182335,24.4748059723401,0.4148690700531006,0.4148688316345215,30.269584029498105,-0.41646198798332534,-0.029346281251555695,80.52479680390576,2.7865947573998255,-2.7865940914817884,24.640817672534496,2.305183790120765,-0.2671752482972174,250.2502250909339,0.0,-51.090803188049684,144.93661169092837,-77.36475086572042,136.8161175816419,-23.638217752588396,-27.901100935599693,-138.05798802108959,112.19223706984432,-22.10401316869755,-68.42053169036244,1.241870439447709,-54.27521475076325,-13.636525621285443,-3.085788307206471,-250.2502250909339,0.0,51.090803188049684,-144.93661169092837,77.36475086572042,-136.8161175816419,23.638217752588396,27.901100935599693,138.05798802108959,-112.19223706984432,22.10401316869755,68.42053169036244,-1.241870439447709,54.27521475076325,13.636525621285443,3.085788307206471
Finger1,9.756266755719457,36.18922329662682,6.962338644910191,39.71597986666016,10.377056640632219,2.423273492925233,0.16795595243470984,40.53252809846116,-6.342439975539307,-0.5707386195790001,36.20368891298128,0.3537857960575366,0.026418471360678097,3.670138404758177,7.52525202334931,-0.4089198445974844,487.50412828828587,0.0,37.32999307416782,332.2552928014667,-46.92736575102255,306.96928861588975,-140.08471392826604,12.98367335201389,-126.62072155470912,292.6362631635254,-178.19405491334425,-42.613670686196,-91.30902226274483,-53.48050156049308,-12.474950986836477,-43.16172068014245,-243.20398816448946,244.30014012379647,-176.34178286918,-133.8872969693963,-107.06217709441609,-140.14836010170677,38.547811736304666,-67.48849353204615,-49.43227499903601,-123.19668826455005,51.692541071919926,-45.270149512782865,23.123422123262763,-14.451858408005073,20.016208501782394,-0.03193788962418154,-487.50412828828587,0.0,-37.32999307416782,-332.2552928014667,46.92736575102255,-306.96928861588975,140.08471392826604,-12.98367335201389,126.62072155470912,-292.6362631635254,178.19405491334425,42.613670686196,91.30902226274483,53.48050156049308,12.474950986836477,43.16172068014245,243.20398816448946,-244.30014012379647,176.34178286918,133.8872969693963,107.06217709441609,140.14836010170677,-38.547811736304666,67.48849353204615,49.43227499903601,123.19668826455005,-51.692541071919926,45.270149512782865,-23.123422123262763,14.451858408005073,-20.016208501782394,0.03193788962418154
Finger1,39.18196953065973,46.151398723264734,7.979707460957829,48.06756552112019,39.18196920116792,4.05940609123968,-0.28734565966226455,48.9064513376547,-5.968951888794351,-3.196207332525347E-4,45.53930947822295,1.7487647930978483,-0.17225124945255033,38.830600927393135,4.525608014019269,-0.41655016700828096,652.4438562162259,0.0,-144.9404860116086,441.07052840584436,-143.2529740890024,399.62135336521794,-180.47137800000417,-126.73938566143153,-187.6547796140057,381.4728090240273,-192.96793098969658,-174.76661085813333,-102.3451507575402,-114.25965248568878,45.22743968716567,-33.918059905409606,-336.58164850619943,315.8622077100264,-133.64113667635283,-275.78675482313236,-94.58425133182001,-221.85683901529944,111.21205020294069,-22.024941321982666,-44.89116051782787,-167.322131171234,89.89046192885064,-4.992882780617066,32.844362940605464,5.796808798266895,3.174401258920703,10.87282896545926,-652.4438562162259,0.0,144.9404860116086,-441.07052840584436,143.2529740890024,-399.62135336521794,180.47137800000417,126.73938566143153,187.6547796140057,-381.4728090240273,192.96793098969658,174.76661085813333,102.3451507575402,114.25965248568878,-45.22743968716567,33.918059905409606,336.58164850619943,-315.8622077100264,133.64113667635283,275.78675482313236,94.58425133182001,221.85683901529944,-111.21205020294069,22.024941321982666,44.89116051782787,167.322131171234,-89.89046192885064,4.992882780617066,-32.844362940605464,-5.796808798266895,-3.174401258920703,-10.87282896545926
Finger1,5.9218580625792185,60.04004676041901,2.7195692779770217,53.07816502001144,2.960598540670901,5.582340364317304,0.23338501288007052,53.346213676527654,-5.495760643654378,-0.11580401832915221,59.17090283357794,2.9019468578886176,-0.7862582278451669,-2.4404640041950927,11.39562457453846,-0.5455727718654986,772.3076209550272,0.0,19.172103810635914,520.6382454329636,-104.72777731477689,478.9709638261168,-207.26419843946974,-22.911135236410736,-193.88110627653512,463.47287349469417,-263.36967578246947,-86.19244653610501,-133.8871646068556,-93.50524639738947,1.0516748594417926,-53.030595985071436,-386.4748058883801,385.8328150666471,-250.582181374444,-225.89287872729568,-146.854433625373,-228.70817857352762,74.17285078775001,-74.57336036867417,-76.99806760631407,-188.7020475017009,79.3159759965869,-51.05431197506803,31.00552461822486,-6.944376031410769,13.066903581771122,5.545678958630365,-772.3076209550272,0.0,-19.172103810635914,-520.6382454329636,104.72777731477689,-478.9709638261168,207.26419843946974,22.911135236410736,193.88110627653512,-463.47287349469417,263.36967578246947,86.19244653610501,133.8871646068556,93.50524639738947,-1.0516748594417926,53.030595985071436,386.4748058883801,-385.8328150666471,250.582181374444,225.89287872729568,146.854433625373,228.70817857352762,-74.17285078775001,74.57336036867417,76.99806760631407,188.7020475017009,-79.3159759965869,51.05431197506803,-31.00552461822486,6.944376031410769,-13.066903581771122,-5.545678958630365
Finger1,4.8086543605379175,50.49945847218173,10.115795543366259,47.199058246331745,2.4100315719139758,5.600648689932342,-0.012177930848313423,47.5053723448398,-3.7434268409607796,-0.7763297285664628,49.61822596502458,2.5412585414929367,-0.39482384838279216,-4.0149589878623715,9.827022467889961,-0.42574870076367155,772.0591440809404,0.0,-24.50410803252222,481.18133160746794,-120.21336346593772,484.95975031887224,-143.54528456523866,-43.71051608699048,-200.27628470982677,462.9573915667013,-213.88864165112778,-100.9578872184689,-142.6271520322407,-114.9940022649587,16.443941590096642,-25.403186790622478,-387.8219859986398,384.23715808230065,-206.897120423587,-226.37870744698355,-143.83968941995886,-245.18686606551628,62.64249780616453,-38.063885359738386,-75.13540556806154,-194.97568171690526,71.01819456707302,-29.76158160272071,44.35740523824523,0.9804195014034747,-0.4394223416133478,1.0741206086827448,-772.0591440809404,0.0,24.50410803252222,-481.18133160746794,120.21336346593772,-484.95975031887224,143.54528456523866,43.71051608699048,200.27628470982677,-462.9573915667013,213.88864165112778,100.9578872184689,142.6271520322407,114.9940022649587,-16.443941590096642,25.403186790622478,387.8219859986398,-384.23715808230065,206.897120423587,226.37870744698355,143.83968941995886,245.18686606551628,-62.64249780616453,38.063885359738386,75.13540556806154,194.97568171690526,-71.01819456707302,29.76158160272071,-44.35740523824523,-0.9804195014034747,0.4394223416133478,-1.0741206086827448
Finger1,48.06431170727661,52.74274986072631,44.65868417326459,52.39638878983902,48.06431104833062,2.339219093322754,2.339219093322754,52.396388200995645,-4.260094080043245,0.1956210275191097,52.502953894461285,1.4165684314837108,-0.457386103811416,48.3882330869892,4.950607100917807,-0.94931603310539,356.2926221994915,0.0,-132.4233589277447,209.8631204148264,-199.34531739750622,156.9473048019853,-10.517803017320176,-130.84727533101966,-356.2926221994915,0.0,132.4233589277447,-209.8631204148264,199.34531739750622,-156.9473048019853,10.517803017320176,130.84727533101966
Finger1,11.664049406584017,62.919424467819546,4.559840080614946,63.68912972880385,8.959713240585359,11.314523729417488,-0.5015218770855085,64.08634467215063,-7.488407030782938,0.14605068798594534,62.499204048300044,1.7148856662486196,-0.33550722371097663,13.98418622178093,9.859781451510813,-0.5198079352966745,864.1775385507304,0.0,-48.7637024387508,593.3809568560521,-129.54236233521289,550.3098714840274,-265.08774527952505,-79.46657142899613,-219.650569508682,518.6274491148328,-298.4158813614252,-150.1954571954114,-173.16937218736882,-127.89286576540187,44.79557278971597,-71.38944854580384,-433.07917887556897,431.0983596751615,-258.79157198775323,-302.0000351224132,-170.07655247562383,-276.6052576489821,128.60355882800587,-76.0162831884969,-85.54827023926379,-214.1611418933706,114.48573321571702,-40.865415247162616,50.01115943899558,-6.560058029670174,5.505307262671124,18.61050837607398,-864.1775385507304,0.0,48.7637024387508,-593.3809568560521,129.54236233521289,-550.3098714840274,265.08774527952505,79.46657142899613,219.650569508682,-518.6274491148328,298.4158813614252,150.1954571954114,173.16937218736882,127.89286576540187,-44.79557278971597,71.38944854580384,433.07917887556897,-431.0983596751615,258.79157198775323,302.0000351224132,170.07655247562383,276.6052576489821,-128.60355882800587,76.0162831884969,85.54827023926379,214.1611418933706,-114.48573321571702,40.865415247162616,-50.01115943899558,6.560058029670174,-5.505307262671124,-18.61050837607398
Finger1,50.375608316818074,51.16079768410936,51.90853426298418,55.77168263337567,50.37560762134245,0.3925952911376953,0.3925952911376953,55.77168185783819,-1.9315733909606934,-1.9315738677978516,62.499204048300044,1.7148856662486196,-0.33550722371097663,49.760621448191415,4.407219987832605,-1.1620845228628696,209.21662289728727,0.0,-106.14729095019374,103.06933194709354,-209.21662289728727,0.0,106.14729095019374,-103.06933194709354
Finger1,5.525587015404284,55.007007864200155,49.69032894316285,53.576945225334946,3.1738522827437805,9.31064767385061,-0.23147943058811649,53.5769444801102,-1.9433073997497559,-1.943307876586914,55.007007328430774,0.7150320766097593,-0.7150315622912444,0.5296588341309416,12.518591400123853,-0.7342340599370942,411.6686611117624,0.0,-73.19574586905051,237.13216064007258,-118.49284544201186,256.4274813882986,-47.40204885713392,-65.63442216287486,-217.26455760042592,194.40410351133647,-43.17110564549178,-123.5865993396084,-39.16292378787266,-139.15433085146805,39.91248560146383,26.068723978446094,-411.6686611117624,0.0,73.19574586905051,-237.13216064007258,118.49284544201186,-256.4274813882986,47.40204885713392,65.63442216287486,217.26455760042592,-194.40410351133647,43.17110564549178,123.5865993396084,39.16292378787266,139.15433085146805,-39.91248560146383,-26.068723978446094
Finger1,10.469138312687953,41.62325941026646,1.884070179996778,47.93141296058084,9.9601141554827,7.7386130652122915,-0.26816389265896134,48.204676869591125,-5.5881835852278385,-0.02510794325970256,41.25193401796429,0.5441423968129584,0.17519077610118927,10.159514010410476,8.604469235514003,-0.5178464220914805,572.2569013813495,0.0,-25.72665294370853,408.14204425170925,-84.20466437700615,362.26820063569033,-202.06615925029513,-56.10981335550527,-147.05996263181697,343.8651582482374,-209.1939223199339,-99.56913700697223,-111.33370578538927,-82.58231895812027,31.71887840299006,-53.79745788799793,-285.2308126793702,287.02608870197935,-184.09254529154336,-203.63259938702046,-114.24584003395023,-181.1340116565118,97.42941831763635,-62.003305715252274,-58.63434556886716,-143.64327905167931,81.00726380858458,-35.445677541271195,33.83264007662862,-6.279815282159731,7.981773169159396,19.539133821932175,-572.2569013813495,0.0,25.72665294370853,-408.14204425170925,84.20466437700615,-362.26820063569033,202.06615925029513,56.10981335550527,147.05996263181697,-343.8651582482374,209.1939223199339,99.56913700697223,111.33370578538927,82.58231895812027,-31.71887840299006,53.79745788799793,285.2308126793702,-287.02608870197935,184.09254529154336,203.63259938702046,114.24584003395023,181.1340116565118,-97.42941831763635,62.003305715252274,58.63434556886716,143.64327905167931,-81.00726380858458,35.445677541271195,-33.83264007662862,6.279815282159731,-7.981773169159396,-19.539133821932175
Finger1,3.3707098385006606,59.0324977749571,54.21650842024172,58.72912158961019,-0.8519984263916172,8.888046243245583,-0.14643382533431293,58.72912077242499,-2.2563061714172363,-2.2563061714172363,59.03249718766594,0.1516889637505301,-0.15168838101004667,-3.8265276670733783,12.025731257218524,-0.5836412748880733,452.457445839912,0.0,-98.81185679643839,274.2512949434351,-75.27534049879283,287.9150629695035,-90.42226073886644,-42.55207445872149,-218.13345403201842,234.32399180789363,-75.25937134613156,-139.68386235645625,-69.78160893748507,-101.58784520165617,16.409545916499823,-16.23675236847842,-452.457445839912,0.0,98.81185679643839,-274.2512949434351,75.27534049879283,-287.9150629695035,90.42226073886644,42.55207445872149,218.13345403201842,-234.32399180789363,75.25937134613156,139.68386235645625,69.78160893748507,101.58784520165617,-16.409545916499823,16.23675236847842
Finger1,3.393113191412336,54.078875962172496,47.403812263008646,51.61103930048404,2.9802087317625023,8.069128244291875,-0.19477824372244612,51.61103858205924,-2.1036128997802734,-2.1036133766174316,54.07887544606217,1.2339190248051182,-1.2339185457122994,0.4227013383720646,10.727274192206437,-0.5603420104107357,429.53945548248555,0.0,-99.58298942658664,259.25847200271096,-74.23411122028456,274.73482236543634,-83.02046548285085,-47.28461467024211,-203.77436530943567,225.76509017304988,-72.65245061110784,-138.16074972123778,-70.96045705600068,-100.64933820860968,23.4472149509523,-11.358422398417382,-429.53945548248555,0.0,99.58298942658664,-259.25847200271096,74.23411122028456,-274.73482236543634,83.02046548285085,47.28461467024211,203.77436530943567,-225.76509017304988,72.65245061110784,138.16074972123778,70.96045705600068,100.64933820860968,-23.4472149509523,11.358422398417382
Finger1,5.954705386259636,45.47102235148544,9.094367416486728,49.10447960634121,4.842252315483279,2.7924301530494233,0.7055007900735291,49.05510152671205,-7.3050414960755745,-0.15075827178471712,42.795586400231,4.201930974647411,-0.33152346286535206,-3.152169652255452,10.735031163019343,-0.4805286662418693,819.4140523494953,0.0,-15.408590268766446,518.3106532150157,-108.73788382044621,513.2526073698033,-166.88363860962184,-28.615165516218205,-211.87185056134118,491.99965165770357,-233.06805881368444,-100.32678934961417,-149.85272275643217,-107.76571435161418,6.252325228879187,-33.61315111153061,-413.5123243716597,405.90172797783555,-225.6241636973746,-236.19488785529018,-157.83032056739424,-248.83337450782219,60.80591338663412,-55.423435372139,-78.48732728604386,-208.32710080815878,74.40111485468015,-34.80445728243913,42.234279628532306,-5.86058466840737,7.76924460442444,3.161249732221618,-819.4140523494953,0.0,15.408590268766446,-518.3106532150157,108.73788382044621,-513.2526073698033,166.88363860962184,28.615165516218205,211.87185056134118,-491.99965165770357,233.06805881368444,100.32678934961417,149.85272275643217,107.76571435161418,-6.252325228879187,33.61315111153061,413.5123243716597,-405.90172797783555,225.6241636973746,236.19488785529018,157.83032056739424,248.83337450782219,-60.80591338663412,55.423435372139,78.48732728604386,208.32710080815878,-74.40111485468015,34.80445728243913,-42.234279628532306,5.86058466840737,-7.76924460442444,-3.161249732221618
Finger1,3.9657407551754793,55.859078721474724,9.572113072108689,53.94286407108186,1.5319550480920157,5.5364276089624695,0.18909115791279163,55.01337548595339,-8.539967654825205,-0.13065192850894647,55.49519252011288,2.208025544616987,-0.3760472111467976,-6.505471519958803,11.936429164716571,-0.551386976787624,787.5545992258074,0.0,20.939557480593912,507.17689984782555,-109.6985194547485,480.57651425349866,-164.21360648945569,-14.456410584316313,-193.95441092003563,473.2901253971328,-236.71225290545544,-70.07185886452635,-122.92123922777793,-88.18158570710065,-14.167580238507213,-30.784112415519,-395.0527661601252,392.50183306568215,-238.3268684467834,-214.83858506634914,-142.89319504989913,-231.8628507202588,56.49629495180325,-56.09121876516083,-78.23735923700758,-190.40047997638774,64.71986961734972,-43.986629352415974,27.329747711706972,-0.8284478670475011,6.63191958225668,2.3327001777291727,-787.5545992258074,0.0,-20.939557480593912,-507.17689984782555,109.6985194547485,-480.57651425349866,164.21360648945569,14.456410584316313,193.95441092003563,-473.2901253971328,236.71225290545544,70.07185886452635,122.92123922777793,88.18158570710065,14.167580238507213,30.784112415519,395.0527661601252,-392.50183306568215,238.3268684467834,214.83858506634914,142.89319504989913,231.8628507202588,-56.49629495180325,56.09121876516083,78.23735923700758,190.40047997638774,-64.71986961734972,43.986629352415974,-27.329747711706972,0.8284478670475011,-6.63191958225668,-2.3327001777291727
Finger1,7.200679011844702,53.82370314797165,3.173141345920084,53.880220470523945,6.233183543278784,10.73605047991623,-0.46045208830769724,52.32339132105395,-2.609634923125199,-0.1710301470307245,55.49519252011288,2.208025544616987,-0.3760472111467976,11.595292945564864,8.85601764949692,-0.5397808640047668,596.2917419595964,0.0,-43.74891979976972,428.12076365147465,-53.26338863207693,380.21166611137426,-214.58420544743961,-49.26470872563455,-147.8740849486543,361.46362478547513,-223.16133759068356,-116.83163940431294,-123.1788183042016,-64.06983980278986,30.948738470837988,-52.851561795259855,-301.38932629142624,294.90241566817014,-179.893462878562,-223.47130971316545,-130.60426128223926,-172.72551553422085,94.55825639820921,-64.3544973712091,-60.07429849404889,-152.35701241366425,88.75223141827139,-29.298070432756163,30.746779781643262,-17.69262537819239,12.397387753137313,12.561700147101227,-596.2917419595964,0.0,43.74891979976972,-428.12076365147465,53.26338863207693,-380.21166611137426,214.58420544743961,49.26470872563455,147.8740849486543,-361.46362478547513,223.16133759068356,116.83163940431294,123.1788183042016,64.06983980278986,-30.948738470837988,52.851561795259855,301.38932629142624,-294.90241566817014,179.893462878562,223.47130971316545,130.60426128223926,172.72551553422085,-94.55825639820921,64.3544973712091,60.07429849404889,152.35701241366425,-88.75223141827139,29.298070432756163,-30.746779781643262,17.69262537819239,-12.397387753137313,-12.561700147101227
Finger1,3.31233606939165,52.904035770985395,8.168186634482801,46.62004313880396,0.6647080017678775,8.106323133464969,-0.06434699310015901,48.35736451370414,-10.98134106851903,0.518727435816924,52.0879874529125,1.6948968636071982,-0.25457811658451135,-1.01636762846573,10.634525905528463,-0.4944800289193001,796.9920205888629,0.0,-24.380528584357243,515.8236634522129,-105.21882608213106,496.4220023275145,-179.87062666857864,-37.47307003834954,-202.70763401441474,479.7528907665838,-237.99444115343857,-108.63919910215508,-141.93362021424264,-101.14672000066773,12.021636243899934,-34.847564694903795,-398.03790161325855,398.95411897560444,-227.04506758696422,-241.71030718142714,-153.62257301806534,-236.022916184927,68.99763270725681,-57.877649812808954,-81.7149891533252,-199.9691881144146,81.90344996682211,-34.31839520522841,37.86621642541501,-5.825944740003621,4.919374758600345,6.172425015614447,-796.9920205888629,0.0,24.380528584357243,-515.8236634522129,105.21882608213106,-496.4220023275145,179.87062666857864,37.47307003834954,202.70763401441474,-479.7528907665838,237.99444115343857,108.63919910215508,141.93362021424264,101.14672000066773,-12.021636243899934,34.847564694903795,398.03790161325855,-398.95411897560444,227.04506758696422,241.71030718142714,153.62257301806534,236.022916184927,-68.99763270725681,57.877649812808954,81.7149891533252,199.9691881144146,-81.90344996682211,34.31839520522841,-37.86621642541501,5.825944740003621,-4.919374758600345,-6.172425015614447
Finger1,44.59948196948248,56.20503828156738,50.192199604640614,53.9911654624055,44.66426891785596,2.9148222365878382,0.30350170012624744,53.99116471155759,-1.899482250213623,-1.899482250213623,56.20503774165579,1.1069371474974332,-1.1069366407940606,43.78131929731728,6.101188031162735,-0.8275904166152515,359.28345626146455,0.0,-131.7346362182866,213.6217815299251,-201.0102975492257,158.27315871223885,-12.611483980699404,-134.1358541184335,-359.28345626146455,0.0,131.7346362182866,-213.6217815299251,201.0102975492257,-158.27315871223885,12.611483980699404,134.1358541184335
Finger1,7.510139328339124,47.74519943593428,39.41913732691908,51.28422828543381,6.015006132756184,3.6065844720233144,0.6062591964817301,51.284227708273264,-4.522835415247414,-0.704854892487333,46.917861733967555,2.60800697780968,-0.32306776876149,-0.5955762764606902,11.319513928761012,-0.6129127056797863,519.762193689101,0.0,-81.45410723992558,344.81652009629164,-150.88257606137682,303.9215852459379,-120.67309848841145,-105.38860809822769,-253.62163809510636,266.1405555939946,-110.77911205961928,-167.267093834825,-50.29994715083157,-128.72452523960843,35.02067222029685,-6.234456895783552,-519.762193689101,0.0,81.45410723992558,-344.81652009629164,150.88257606137682,-303.9215852459379,120.67309848841145,105.38860809822769,253.62163809510636,-266.1405555939946,110.77911205961928,167.267093834825,50.29994715083157,128.72452523960843,-35.02067222029685,6.234456895783552
Finger1,4.417988984852558,54.87805482980683,7.502622736908393,53.22232267033298,2.2216864836642003,6.908482031112328,0.12825070151302498,55.11370790881074,-14.22418933880759,1.0177510445197449,53.13329559643785,3.497299351909703,-0.3686317396168235,-2.406030415577277,11.591498088655143,-0.5245723931530493,886.5580848316004,0.0,-8.457508552363855,568.3601494240576,-107.33229347666492,551.2401480697956,-191.37646253627628,-20.251632978223,-228.6190736441247,533.8538078089196,-259.2010498077291,-106.14545057175901,-155.74248353773118,-105.40590962681361,-3.594728917158001,-39.579814983010124,-445.3002737362117,441.25781109538866,-251.28196291155604,-256.0737137761579,-177.18851591327856,-263.71679585064953,69.97467610323442,-66.96330946437702,-88.55353407270792,-226.99363457158836,85.58964621411275,-37.49545589938565,45.07976170280162,-11.905913891965525,10.19307040527826,8.171367137164568,-886.5580848316004,0.0,8.457508552363855,-568.3601494240576,107.33229347666492,-551.2401480697956,191.37646253627628,20.251632978223,228.6190736441247,-533.8538078089196,259.2010498077291,106.14545057175901,155.74248353773118,105.40590962681361,3.594728917158001,39.579814983010124,445.3002737362117,-441.25781109538866,251.28196291155604,256.0737137761579,177.18851591327856,263.71679585064953,-69.97467610323442,66.96330946437702,88.55353407270792,226.99363457158836,-85.58964621411275,37.49545589938565,-45.07976170280162,11.905913891965525,-10.19307040527826,-8.171367137164568
Finger1,47.472964701887115,50.196856764845606,56.21579140491312,59.480446605515446,48.01356831066224,0.01668848566765746,0.08695036540885326,59.4804457794113,-1.6323270797729492,-1.6323275566101074,50.1968561700412,-4.641793726411606,4.641794460469839,47.53284115314233,0.15846928817421713,0.20739655456984707,413.7353874091233,0.0,-98.22349014536408,255.25033131455342,-206.0991885438598,207.63619886526348,-49.15114277069361,-108.98303575575846,-413.7353874091233,0.0,98.22349014536408,-255.25033131455342,206.0991885438598,-207.63619886526348,49.15114277069361,108.98303575575846
Finger1,7.57617541019973,71.03384306151659,59.55817774512538,72.18356653224885,4.500301277358517,7.947819323582735,0.6056235804886825,72.18356573558162,-5.177901344703059,-0.5673963310255203,50.1968561700412,-4.641793726411606,4.641794460469839,-2.397415703563354,17.68266869397189,-1.122974952012484,451.6980728455643,0.0,-24.44834205525182,256.30844922175356,-141.5256026201365,259.09241287987356,-24.89553025310849,-21.700714385658383,-214.6016115615265,237.09646128403784,-104.28821629725351,-100.03819380692363,-44.49080131834711,-109.80378567980344,-1.003975620192655,-20.904184072945178,-451.6980728455643,0.0,24.44834205525182,-256.30844922175356,141.5256026201365,-259.09241287987356,24.89553025310849,21.700714385658383,214.6016115615265,-237.09646128403784,104.28821629725351,100.03819380692363,44.49080131834711,109.80378567980344,1.003975620192655,20.904184072945178
Finger1,19.001979968520157,20.59219408414606,6.117087814684526,20.340459015482615,19.001979707704237,0.7951072454452515,0.7951072454452515,20.340458651642336,-10.183708759986303,1.5360116561040584,50.1968561700412,-4.641793726411606,4.641794460469839,19.23592001344764,3.026717793376875,-1.623409866060232,77.74448221155913,0.0,-31.411917033276055,43.16936991822961,-45.4595267986873,32.284955412871824,2.290156880457687,-26.633308265553985,-77.74448221155913,0.0,31.411917033276055,-43.16936991822961,45.4595267986873,-32.284955412871824,-2.290156880457687,26.633308265553985
Finger1,25.48836767998584,27.254075869285558,28.945306510364304,29.907663100720608,25.488367329707614,0.8828544616699219,0.8828542232513428,29.907662816283164,0.7677827281270879,-0.6244804388029195,50.1968561700412,-4.641793726411606,4.641794460469839,25.20811938885265,3.329082219623018,-0.5895013701670138,141.64637828756406,0.0,-52.45597482984557,70.42844618551413,-84.34133729107076,57.30504099649329,13.912891105556625,-27.92996374021603,-141.64637828756406,0.0,52.45597482984557,-70.42844618551413,84.34133729107076,-57.30504099649329,-13.912891105556625,27.92996374021603
Finger1,47.377244979631435,56.782270616173996,46.072704434244265,52.335559024002215,47.37724460022818,6.06431129595353,-0.6808991355588319,52.33555829314441,-3.1314268112182617,-3.1314268112182617,56.782270092818464,2.2233564366010796,-2.223355979946291,47.171442484101476,7.7891195285391746,-1.605520298930827,311.5618318632156,0.0,-129.8355284180655,166.43102619959595,-156.49507461980764,155.06675724340795,-9.935951579788295,-86.90499503060585,-311.5618318632156,0.0,129.8355284180655,-166.43102619959595,156.49507461980764,-155.06675724340795,9.935951579788295,86.90499503060585
Finger1,4.133332856598397,61.04454084519518,13.675395248745026,53.35165168250825,4.289112510046948,8.605930688246417,-0.06693422451515829,54.95653173021465,-11.748637132713526,0.7868402611118732,60.586689850863024,2.147892348478649,-0.32063297377698774,3.5991137741315242,10.947617227953671,-0.4964383989952257,968.5430513264225,0.0,-50.62795159229372,626.8471729805283,-122.59154508135887,606.3862207047503,-220.0206974828388,-58.04832489173213,-243.32369788441898,588.9457024673952,-291.27813247445306,-147.7053105812068,-182.69811823629968,-118.6983349700941,21.958756595174144,-44.11818172055123,-486.4271955666956,482.115855759727,-258.78431967677454,-309.0218743510697,-196.05540690659245,-296.2518976420372,102.32571410556481,-58.69264478849051,-102.51850690069969,-252.9731254019971,112.59765421366437,-31.23403085647621,59.14666534294916,-15.933050299436061,4.434688416847436,16.300312543982734,-968.5430513264225,0.0,50.62795159229372,-626.8471729805283,122.59154508135887,-606.3862207047503,220.0206974828388,58.04832489173213,243.32369788441898,-588.9457024673952,291.27813247445306,147.7053105812068,182.69811823629968,118.6983349700941,-21.958756595174144,44.11818172055123,486.4271955666956,-482.115855759727,258.78431967677454,309.0218743510697,196.05540690659245,296.2518976420372,-102.32571410556481,58.69264478849051,102.51850690069969,252.9731254019971,-112.59765421366437,31.23403085647621,-59.14666534294916,15.933050299436061,-4.434688416847436,-16.300312543982734
Finger1,18.723460051415078,40.76903098816256,8.327091579392693,40.162549192697135,18.159190813411612,4.030618587656079,0.11847275315397354,40.709304799337986,-5.920856509347999,-0.13140800572764633,60.586689850863024,2.147892348478649,-0.32063297377698774,15.364095455389702,8.876379491110384,-0.8815498527338939,324.14596654825175,0.0,-54.083329721757885,198.67726910978246,-90.03123696428504,193.44697902203868,-54.4874761433571,-44.615789437881844,-165.08571281607556,159.06025373217622,-56.849285451365326,-100.66865291574442,-28.361266205963133,-86.89431412973752,17.302893380359194,-6.983908884053847,-324.14596654825175,0.0,54.083329721757885,-198.67726910978246,90.03123696428504,-193.44697902203868,54.4874761433571,44.615789437881844,165.08571281607556,-159.06025373217622,56.849285451365326,100.66865291574442,28.361266205963133,86.89431412973752,-17.302893380359194,6.983908884053847
Finger1,43.995347418701954,47.643765863352805,44.28328463291474,47.643765863352805,43.99534681479467,1.8242096900939941,1.8242096900939941,47.64376520076778,-1.6802401542663574,-1.6802401542663574,60.586689850863024,2.147892348478649,-0.32063297377698774,43.99534710356383,7.152868372055423,-3.504449790368426,135.9223979149695,0.0,-88.2786320516167,47.643765863352805,-135.9223979149695,0.0,88.2786320516167,-47.643765863352805
Finger1,13.109169129792505,14.02491956508442,43.05329318518832,50.884248685079356,13.10916894964647,0.45787525177001953,0.4578753709793091,51.086265403738395,1.5207795216226145,-0.4852318417850796,12.48922286875981,2.5226398415595668,0.6673921796417588,6.577266290034686,9.550460961862427,-0.5125824352747408,541.3686611657271,0.0,-92.82669721644855,357.2014161643838,-163.41173287458582,313.45352167153465,-120.8890632934573,-115.02670465688229,-262.0354273041117,279.3332338616154,-113.11977001689868,-174.5864352983954,-51.41809436742298,-133.24650116491154,34.90204616927502,-7.123679590204105,-541.3686611657271,0.0,92.82669721644855,-357.2014161643838,163.41173287458582,-313.45352167153465,120.8890632934573,115.02670465688229,262.0354273041117,-279.3332338616154,113.11977001689868,174.5864352983954,51.41809436742298,133.24650116491154,-34.90204616927502,7.123679590204105
Finger1,2.778792909535621,49.136215500635636,45.60154695118253,51.107045816683105,1.6388559842486927,6.878905146347222,0.5675812461125105,51.10704510369898,-2.752748966217041,-2.752748966217041,48.61745732981899,1.767157688647444,-0.1866141185543313,-0.9989392271381803,12.398444231971695,-0.6800127101996782,557.3428662659616,0.0,-69.44702379439765,383.9487581861947,-159.76347234894843,327.55932943699133,-152.2172376908325,-116.45228265170594,-267.6943570088468,289.64850925711477,-138.8784059791788,-179.80473508540143,-59.86497242814454,-137.56292410152358,44.97226735920496,-15.204064156583428,-557.3428662659616,0.0,69.44702379439765,-383.9487581861947,159.76347234894843,-327.55932943699133,152.2172376908325,116.45228265170594,267.6943570088468,-289.64850925711477,138.8784059791788,179.80473508540143,59.86497242814454,137.56292410152358,-44.97226735920496,15.204064156583428
Finger1,9.496195884107163,51.917196637901306,6.875198386217413,49.89374474394528,9.040535724779176,8.312547507762872,-0.20171199204547463,51.22321093788394,-11.10345784279167,0.3943757842182656,50.48154696499341,3.1489143938864004,-0.3422846226030316,6.565453169634225,10.603692638962244,-0.5344460358095144,830.7898480367353,0.0,-16.51530877683252,537.5081517197445,-109.58402344640285,515.481220101615,-183.74194218049487,-33.90915391978955,-213.55596011292542,498.4213720038074,-249.1612437953027,-107.39132717283535,-142.72005530871684,-103.09326063355992,3.558899786502497,-32.862127214570805,-422.39990471447305,408.38994332226224,-231.27185463673234,-251.25913690902348,-155.44282415535554,-252.18638939153416,72.04293600104901,-52.69227830548544,-76.02146728933434,-210.44820282294435,80.73524583963793,-33.178303120761484,39.53918542942839,-2.032880217648696,3.9651827797594237,-0.3560067424351292,-830.7898480367353,0.0,16.51530877683252,-537.5081517197445,109.58402344640285,-515.481220101615,183.74194218049487,33.90915391978955,213.55596011292542,-498.4213720038074,249.1612437953027,107.39132717283535,142.72005530871684,103.09326063355992,-3.558899786502497,32.862127214570805,422.39990471447305,-408.38994332226224,231.27185463673234,251.25913690902348,155.44282415535554,252.18638939153416,-72.04293600104901,52.69227830548544,76.02146728933434,210.44820282294435,-80.73524583963793,33.178303120761484,-39.53918542942839,2.032880217648696,-3.9651827797594237,0.3560067424351292
Finger1,53.08845927217595,57.096021027983696,4.057362631568859,57.096021027983696,53.08845854298664,2.003781318664551,2.003781318664551,57.7699540520679,-5.239425149441743,-0.03245526289373135,50.48154696499341,3.1489143938864004,-0.3422846226030316,57.570867607909506,-3.3000528646724376,-0.1682858257173958,387.89429498923874,0.0,-139.78985238717604,221.40827760828972,-131.72758524875547,219.4469036165451,-33.81004938752813,-91.36185867040504,-204.75819563716328,183.13609935207546,-23.561046715659387,-149.30861831352146,-14.688707979381803,-106.86964138087068,20.723315740998732,14.578350855805894,-387.89429498923874,0.0,139.78985238717604,-221.40827760828972,131.72758524875547,-219.4469036165451,33.81004938752813,91.36185867040504,204.75819563716328,-183.13609935207546,23.561046715659387,149.30861831352146,14.688707979381803,106.86964138087068,-20.723315740998732,-14.578350855805894
Finger1,5.154894018471091,47.31912722751597,46.20494882590586,50.15316209340359,3.4717940252096184,9.041793503960605,0.030916492741290824,50.153161395437216,-1.9741063117980957,-1.9741058349609375,50.48154696499341,3.1489143938864004,-0.3422846226030316,1.0742716876027885,13.485565000870565,-0.9405272055034075,254.51618476546452,0.0,-34.559886071097296,166.05649825168376,-118.9346152932567,135.58156947220783,-47.12188295842709,-55.99697292578186,-254.51618476546452,0.0,34.559886071097296,-166.05649825168376,118.9346152932567,-135.58156947220783,47.12188295842709,55.99697292578186
Finger1,5.3561116681601435,57.24709875739181,5.8252488750229485,59.329785750505074,4.303877764043079,8.534056661534862,-0.1110024483076657,61.2389446309725,-6.634170800823526,0.08118013872515473,57.247098164093984,-1.0413425389225495,1.041343163460624,5.003565892252368,10.68311316742006,-0.5957165578546264,658.4429218039654,0.0,-4.586740477023021,481.8716946928114,-80.59000662418183,415.46688443845835,-246.005066885158,-49.6475994024651,-162.75641263309706,400.3724261149349,-266.6099144527843,-108.59609490786464,-129.3193694293842,-80.93664822215659,29.623732028615976,-63.595831176753535,-330.8241142167277,327.61880758723765,-226.9915617287091,-231.54412654451613,-135.10756957531626,-201.2148939513042,107.84233891501688,-77.41982113536699,-69.5483118982072,-169.3541896678662,99.53516814028788,-45.67866490067438,39.17064078373778,-10.795496982659557,9.50524630934666,13.635601122515308,-658.4429218039654,0.0,4.586740477023021,-481.8716946928114,80.59000662418183,-415.46688443845835,246.005066885158,49.6475994024651,162.75641263309706,-400.3724261149349,266.6099144527843,108.59609490786464,129.3193694293842,80.93664822215659,-29.623732028615976,63.595831176753535,330.8241142167277,-327.61880758723765,226.9915617287091,231.54412654451613,135.10756957531626,201.2148939513042,-107.84233891501688,77.41982113536699,69.5483118982072,169.3541896678662,-99.53516814028788,45.67866490067438,-39.17064078373778,10.795496982659557,-9.50524630934666,-13.635601122515308
Finger1,58.01506393974947,60.926304917349675,60.06358954576028,65.26852626657391,58.015063141165,1.4556212425231934,1.4556212425231934,65.26852552796183,-5.281889403657601,1.3397106980012836,57.247098164093984,-1.0413425389225495,1.041343163460624,57.844490464048704,5.20182315876275,-1.1880284371203516,305.5998313727041,0.0,-117.79578122592699,151.71420524555123,-183.34717975208366,122.25265162062044,31.63297450653245,-64.98565400699115,-305.5998313727041,0.0,117.79578122592699,-151.71420524555123,183.34717975208366,-122.25265162062044,-31.63297450653245,64.98565400699115
Finger1,7.934935968726609,42.992142528470836,4.573959451359502,42.30020561439981,7.638933123396129,5.546547163814608,0.0816433583089804,42.97001874775331,-6.935756153481705,0.18280503927674907,43.10706479736746,0.7606865051758973,-0.1672850125907317,6.43830869457625,8.295794883215763,-0.4591308323096053,570.9140459621761,0.0,-8.475949188985147,397.3460845482591,-65.7143364165616,362.7687403031356,-184.85675358398885,-21.553069706249,-146.42526671595738,342.5217682811251,-207.08093648604034,-86.6067674545898,-111.98213268274036,-71.71024603298184,8.397872867311792,-56.652477859715574,-279.80070767154905,291.1133382906271,-189.4323911949435,-188.33478145067204,-127.11128840946132,-169.9405133818323,75.07105216890739,-69.41583534674689,-62.72106060957606,-139.9716644083469,75.26016965640213,-35.29596926847486,29.33838595986229,-15.980953729835434,12.77394074023864,10.36669821086494,-570.9140459621761,0.0,8.475949188985147,-397.3460845482591,65.7143364165616,-362.7687403031356,184.85675358398885,21.553069706249,146.42526671595738,-342.5217682811251,207.08093648604034,86.6067674545898,111.98213268274036,71.71024603298184,-8.397872867311792,56.652477859715574,279.80070767154905,-291.1133382906271,189.4323911949435,188.33478145067204,127.11128840946132,169.9405133818323,-75.07105216890739,69.41583534674689,62.72106060957606,139.9716644083469,-75.26016965640213,35.29596926847486,-29.33838595986229,15.980953729835434,-12.77394074023864,-10.36669821086494
Finger1,9.22041029479304,9.350099442396866,43.95007390537551,47.325906430223036,9.220410167481402,0.06484460830688477,0.06484460830688477,47.347299833912246,1.4791571465987658,-0.2442157014591082,8.750575885447944,0.322698735504531,0.7338179815487571,1.4082332059757618,7.7200522952702215,-0.3128556221383718,605.8350659534178,0.0,78.70254871021436,400.8808732482145,-52.97017205023064,362.7727790143879,-149.33245275080236,49.75995399646488,-161.34926976832375,347.8881483499531,-191.96004576161545,-8.618580058405819,-78.41677695312033,-34.775470344517274,-50.42857764147634,-55.54303438508268,-316.84874240528995,288.98632354812787,-205.40878424852366,-125.7605933251288,-103.66660577258234,-142.48259779765635,5.113211973875629,-94.2424456521002,-31.039405944663145,-131.58844596083821,15.463293139165899,-64.19521363468635,-21.32888886004924,-20.30338497209796,56.471128619251225,7.818940635064326,-605.8350659534178,0.0,-78.70254871021436,-400.8808732482145,52.97017205023064,-362.7727790143879,149.33245275080236,-49.75995399646488,161.34926976832375,-347.8881483499531,191.96004576161545,8.618580058405819,78.41677695312033,34.775470344517274,50.42857764147634,55.54303438508268,316.84874240528995,-288.98632354812787,205.40878424852366,125.7605933251288,103.66660577258234,142.48259779765635,-5.113211973875629,94.2424456521002,31.039405944663145,131.58844596083821,-15.463293139165899,64.19521363468635,21.32888886004924,20.30338497209796,-56.471128619251225,-7.818940635064326
Finger1,2.6156288303810853,57.34745535720327,51.04335337938748,55.08385254552247,1.688254787523988,7.1026539653235545,0.1460819023344797,55.0838517792851,-2.0202488899230957,-2.020249366760254,57.34745480636485,1.1318021585308315,-1.1318016416465753,-2.515536043092652,12.12886796944531,-0.6320360580493265,396.0829594713206,0.0,-69.64036283526875,222.44456396949795,-110.2444900387111,248.49187260853626,-36.842483326827875,-56.825766132775925,-209.0187783243711,187.06418114694947,-36.68889686888339,-114.36447100642718,-39.47309428416514,-133.66075491917917,35.42649426769129,29.434050366126773,-396.0829594713206,0.0,69.64036283526875,-222.44456396949795,110.2444900387111,-248.49187260853626,36.842483326827875,56.825766132775925,209.0187783243711,-187.06418114694947,36.68889686888339,114.36447100642718,39.47309428416514,133.66075491917917,-35.42649426769129,-29.434050366126773
Finger1,9.055465114039839,60.51448373187825,48.13914703173888,58.56196794201234,8.931115900335215,3.611022280316007,0.23758078788634052,58.56196727284053,-5.518895679750358,0.153742772508906,60.51448314625864,0.9762587099056645,-0.9762581535737809,2.8841793824306023,8.781404544226831,-0.36514901785562337,540.4292792837525,0.0,-116.66187327711152,358.1489414453434,-163.99570034100134,313.4453853565433,-122.54116638181551,-135.28811600789285,-260.10371680238734,280.3255624813652,-103.44924665160488,-188.59662166448862,-53.341668554155945,-134.3425419106875,43.54157376727383,6.082943807217873,-540.4292792837525,0.0,116.66187327711152,-358.1489414453434,163.99570034100134,-313.4453853565433,122.54116638181551,135.28811600789285,260.10371680238734,-280.3255624813652,103.44924665160488,188.59662166448862,53.341668554155945,134.3425419106875,-43.54157376727383,-6.082943807217873
Finger1,4.176785644888886,4.469141177481385,49.72246899378653,50.17395420915686,4.176785587492237,0.14617782831192017,0.14617779850959778,50.03785398342745,3.632499192748128,-0.5173913190975696,3.3084836513591256,1.4558594483390834,0.7561609386819548,-4.714320839370544,9.464496872579133,-0.3732269021121155,597.5091326134016,0.0,7.009580709878527,391.4405608026994,-118.03047362661495,374.42954113167536,-142.31054253199443,-29.642814680178986,-287.0863806253217,310.42275198807994,-170.10679614042158,-146.37350307123708,-87.34316050635371,-140.79910933392176,27.409633251371215,-29.678257577808118,-597.5091326134016,0.0,-7.009580709878527,-391.4405608026994,118.03047362661495,-374.42954113167536,142.31054253199443,29.642814680178986,287.0863806253217,-310.42275198807994,170.10679614042158,146.37350307123708,87.34316050635371,140.79910933392176,-27.409633251371215,29.678257577808118
Finger1,10.630801659242113,53.456577049489546,2.469159723749499,55.67143839157093,7.065842442599376,8.609918789224992,-0.24976008130765592,56.856667892404204,-7.199706649339696,0.0953683309904978,52.36866284028679,3.0049360490610866,-0.42413219755866294,7.227248120737926,9.922493074418284,-0.508513382385614,767.4075498403633,0.0,-6.446949452236623,520.7644381969019,-103.55022193222469,486.1259836022429,-224.14866014721895,-35.97175160465161,-198.81091273668602,459.6971380790885,-261.08985855827154,-106.12557962420378,-149.33303735813098,-105.58636293941046,16.99436946428012,-64.98681719593725,-385.1001158975206,382.30743394284275,-239.7978716877331,-239.53916347342067,-153.50815803160032,-236.25817570165447,88.8353874426742,-79.9592970115745,-74.59702218156792,-192.44071491931803,88.0441534337091,-44.774183088994164,40.771030681469405,-10.66223947500609,14.508487851615865,12.631392778141702,-767.4075498403633,0.0,6.446949452236623,-520.7644381969019,103.55022193222469,-486.1259836022429,224.14866014721895,35.97175160465161,198.81091273668602,-459.6971380790885,261.08985855827154,106.12557962420378,149.33303735813098,105.58636293941046,-16.99436946428012,64.98681719593725,385.1001158975206,-382.30743394284275,239.7978716877331,239.53916347342067,153.50815803160032,236.25817570165447,-88.8353874426742,79.9592970115745,74.59702218156792,192.44071491931803,-88.0441534337091,44.774183088994164,-40.771030681469405,10.66223947500609,-14.508487851615865,-12.631392778141702
Finger1,1.9087218287508758,55.263745708031614,48.43926147227374,52.43975170022023,-1.99923507359415,5.742938054439321,0.022401041575403013,52.439750970582296,-2.000244617462158,-2.0002450942993164,54.815101156921656,1.7326687719393021,-0.5437715711985334,-6.751808831629546,9.348900967634705,-0.3578258270691528,570.1351491768257,0.0,8.546266488528254,377.26619300484003,-109.54245072213295,358.3193826916943,-141.86972885660836,-29.600890739020187,-274.6724502207286,295.46269895609714,-165.3741415742565,-143.88298724675434,-83.64693247096567,-133.66140984572132,28.986271016088747,-27.487295064951,-570.1351491768257,0.0,-8.546266488528254,-377.26619300484003,109.54245072213295,-358.3193826916943,141.86972885660836,29.600890739020187,274.6724502207286,-295.46269895609714,165.3741415742565,143.88298724675434,83.64693247096567,133.66140984572132,-28.986271016088747,27.487295064951
Finger1,4.04622255236375,56.10628622052713,48.28372808737236,52.08992125793446,2.6257095703009554,7.917117517220163,-0.019373392532365585,52.08992053336111,-1.9030961990356445,-1.9030957221984863,55.50874494157816,4.055459155472931,-1.6652955952269792,-1.5463925466720525,12.595152204930713,-0.7086087509369676,454.16730697579203,0.0,-96.25412079288117,273.1948450950494,-78.49002214066124,288.10236882630164,-84.6812244385126,-42.104391590115526,-218.7734514899241,235.393855485868,-76.08489455591763,-139.83328881963362,-69.32891733637757,-103.02412537593355,17.038862911087108,-13.16592544825167,-454.16730697579203,0.0,96.25412079288117,-273.1948450950494,78.49002214066124,-288.10236882630164,84.6812244385126,42.104391590115526,218.7734514899241,-235.393855485868,76.08489455591763,139.83328881963362,69.32891733637757,103.02412537593355,-17.038862911087108,13.16592544825167
Finger1,52.70731361266865,56.50949835189257,9.320743934158857,55.13071622401283,52.70731288850685,1.9010930061340332,1.9010930061340332,56.417339278038554,-11.37909701195656,0.3244415571956516,56.50949780058548,0.6893918460903024,-0.6893913154648885,55.77898254442482,1.5710467719861043,-1.0070416821082873,353.1320240990224,0.0,-132.87686206109314,216.74350831713417,-126.10016591015528,196.97537479987625,-54.29862514793075,-103.13061926663892,-192.58054202166363,160.55148207735877,-25.228628220203333,-153.58404914513352,-4.394832778212617,-100.41629007534249,29.62950358785789,13.160139855345072,-353.1320240990224,0.0,132.87686206109314,-216.74350831713417,126.10016591015528,-196.97537479987625,54.29862514793075,103.13061926663892,192.58054202166363,-160.55148207735877,25.228628220203333,153.58404914513352,4.394832778212617,100.41629007534249,-29.62950358785789,-13.160139855345072
Finger1,46.85279676957409,189.11115880066015,101.005987206624,190.57534785218604,44.204867399924865,45.56151720195635,-2.1443687796448216,192.39239811337524,-50.37917014605705,6.437116284270303,56.50949780058548,0.6893918460903024,-0.6893913154648885,37.61925722622152,63.63770141673376,-7.155921170891389,1169.7226475527582,0.0,-92.22402851522807,792.5469133432907,-332.2466725494179,670.7105219842892,-306.60637031348335,-150.73048698712796,-616.4760293891007,553.2466181636576,-277.94526365099347,-351.12599487711344,-54.2344925951885,-274.7828163848021,31.41013574769302,-87.72228857358226,-1169.7226475527582,0.0,92.22402851522807,-792.5469133432907,332.2466725494179,-670.7105219842892,306.60637031348335,150.73048698712796,616.4760293891007,-553.2466181636576,277.94526365099347,351.12599487711344,54.2344925951885,274.7828163848021,-31.41013574769302,87.72228857358226
Finger1,92.21798254747446,263.9293576201939,117.29725710528369,256.0254715452193,88.27901913946675,48.328824639513186,3.8447586436792562,256.0254681376512,-58.32706625002629,-5.518519699089325,56.50949780058548,0.6893918460903024,-0.6893913154648885,69.88060251837771,109.69463859171287,-16.81685024985154,1262.4182560169297,0.0,-388.46809811289353,742.9069706439486,-677.6733036615457,584.744952355384,-65.2336669824029,-369.6544935890516,-1262.4182560169297,0.0,388.46809811289353,-742.9069706439486,677.6733036615457,-584.744952355384,65.2336669824029,369.6544935890516
Finger1,45.60695497445778,637.656981958803,65.84396194826137,577.8725048417276,61.68497056578508,-15.071460756574197,11.13220462462067,587.4974618484857,-89.28635575099543,0.1604719854347536,631.7518564309057,26.949354683399633,-5.969390381231847,-124.27899643328692,135.77988741616934,-6.330695573265331,7734.821135782254,0.0,817.8492239544165,5109.6808800628,-1155.5322267523345,4632.911037747097,-1700.8147782816222,142.23779955147245,-1909.984762944779,4669.970280529331,-2661.5185094396975,-404.2125515172397,-1083.991069217757,-850.487763420599,-364.4282567069474,-360.57483292775555,-3896.6979224561414,3838.123213326113,-2718.4008591993634,-1892.0576724260748,-1292.360496011509,-2263.256594554152,389.6519055758753,-713.5908049820025,-773.2723580731893,-1925.3014992025069,649.4074602211841,-629.3429455112628,276.1493149627658,57.24110257906773,83.76487445958689,-97.93216931738408,-7734.821135782254,0.0,-817.8492239544165,-5109.6808800628,1155.5322267523345,-4632.911037747097,1700.8147782816222,-142.23779955147245,1909.984762944779,-4669.970280529331,2661.5185094396975,404.2125515172397,1083.991069217757,850.487763420599,364.4282567069474,360.57483292775555,3896.6979224561414,-3838.123213326113,2718.4008591993634,1892.0576724260748,1292.360496011509,2263.256594554152,-389.6519055758753,713.5908049820025,773.2723580731893,1925.3014992025069,-649.4074602211841,629.3429455112628,-276.1493149627658,-57.24110257906773,-83.76487445958689,97.93216931738408
Finger1,63.30325752439548,416.7230504189933,293.0893547747833,411.9571372983094,59.174119059333634,63.37494606045584,-1.743942093279884,412.96170375558154,-35.98585504859966,1.4635071117630787,413.51791537161785,18.956733573853853,-6.136205285293499,37.82966659350086,85.88072257535555,-4.88865291949314,4622.938156407645,0.0,-552.5391752016549,3062.1794245203773,-1246.7867368636385,2837.4516806173606,-1191.7273008866055,-708.7266985914154,-2392.2190960972857,2230.719060310359,-1095.6998010495856,-1632.740695705308,-445.2325845200746,-1374.757853065997,524.2906641176672,-224.85810233333973,-4622.938156407645,0.0,552.5391752016549,-3062.1794245203773,1246.7867368636385,-2837.4516806173606,1191.7273008866055,708.7266985914154,2392.2190960972857,-2230.719060310359,1095.6998010495856,1632.740695705308,445.2325845200746,1374.757853065997,-524.2906641176672,224.85810233333973
Finger1,104.50232440899822,583.4992639158568,92.60642810680483,577.2596113990123,95.01379551456012,124.92888632617178,-5.106861414755713,599.0514725578091,-119.71582204856486,5.260947201307943,583.4992581432614,3.1198347145254957,-3.119829035526891,101.5287141455276,146.2649206221123,-11.97163989583656,4926.736700974762,0.0,-611.5864077055564,3134.2393181186,-1303.0584136385887,2959.192005471288,-988.0619352683227,-677.8947050370502,-2454.338542663269,2472.3981583114933,-1034.6518868092553,-1488.8071211561187,-504.85346280801923,-1270.60487484752,290.8385832197462,-110.98975014544965,-4926.736700974762,0.0,611.5864077055564,-3134.2393181186,1303.0584136385887,-2959.192005471288,988.0619352683227,677.8947050370502,2454.338542663269,-2472.3981583114933,1034.6518868092553,1488.8071211561187,504.85346280801923,1270.60487484752,-290.8385832197462,110.98975014544965
Finger1,184.2033443528145,519.828479531269,169.50692848706137,519.828479531269,180.15821302423342,165.13625167428927,-16.854817380834902,534.884330742504,-90.34754309221717,-1.1634356629252238,583.4992581432614,3.1198347145254957,-3.119829035526891,193.38714757506864,170.7024765910528,-25.964778055365514,2691.697599332728,0.0,-640.5944195991543,1637.0356335424,-1337.8067860058318,1353.890813326896,-299.2288475365684,-662.1681504988862,-2691.697599332728,0.0,640.5944195991543,-1637.0356335424,1337.8067860058318,-1353.890813326896,299.2288475365684,662.1681504988862
Finger1,192.63557711549447,1009.4698677442959,179.98904194500068,943.0628533551716,172.7969113230056,264.9099545534382,-19.01894302749156,963.4875493468812,-125.71563126830551,1.3600279794414973,990.1969828597939,60.50272431283338,-13.201035298122633,285.32228825677066,189.98369053218653,-12.151136102812302,12513.52789937973,0.0,-1217.423158892813,9048.334965927379,-1668.120656466538,8043.880284669644,-4679.96464611376,-1591.8743921238179,-3234.597824415359,7526.81784924571,-4677.962338868523,-2755.445137057212,-2609.8588805941495,-1841.156075669187,1007.2438542242975,-1146.5558824920859,-6240.688419756068,6272.839479623662,-3816.5388860984717,-4978.3939262463355,-2680.735874357956,-4032.9297739850513,2488.6361302119617,-1213.0076496803674,-1286.1294294896425,-3176.4104364775417,2043.0438785119131,-573.9697443795922,849.7000696490104,-189.32515443765578,65.0600824128893,373.24425056881483,-12513.52789937973,0.0,1217.423158892813,-9048.334965927379,1668.120656466538,-8043.880284669644,4679.96464611376,1591.8743921238179,3234.597824415359,-7526.81784924571,4677.962338868523,2755.445137057212,2609.8588805941495,1841.156075669187,-1007.2438542242975,1146.5558824920859,6240.688419756068,-6272.839479623662,3816.5388860984717,4978.3939262463355,2680.735874357956,4032.9297739850513,-2488.6361302119617,1213.0076496803674,1286.1294294896425,3176.4104364775417,-2043.0438785119131,573.9697443795922,-849.7000696490104,189.32515443765578,-65.0600824128893,-373.24425056881483
Finger1,13.096743215554895,16.151189550114537,13.653687813550924,16.151189550114537,13.09674303809547,1.5272232294082642,1.5272231101989746,16.151189323901676,-1.2487506866455078,-1.2487508058547974,990.1969828597939,60.50272431283338,-13.201035298122633,13.096743185923643,5.830420104315863,-2.7759738844931547,42.901620579220356,0.0,-26.75043102910582,16.151189550114537,-42.901620579220356,0.0,26.75043102910582,-16.151189550114537
Finger1,144.79520452258845,160.13216566686248,804.8001556490243,818.2149726922908,150.15455235769502,4.059459916166475,-0.3434037426439147,818.2149613654078,-6.707405090332031,-6.707405090332031,170.5245370417265,-73.7207243728235,40.490166581865196,235.69111733378986,-59.08734862921915,6.095647177853294,5089.95776152611,0.0,624.9429930225299,2284.4074052927517,23.772636964069875,2757.557754176364,827.0513579554829,1174.7703132762908,-1356.7323980193341,2828.8362335903457,-244.1996544858307,654.8359270095509,-186.69063557416325,397.6473905073956,-1203.4790246205735,357.9678958499435,-2780.1944603275924,2309.763301198517,-830.8201915534904,-170.79399275383935,-719.5344261441377,-580.2151659442267,-1373.2006968905885,-288.4950695594106,-48.64177326275353,-967.7118184458385,-850.524442209231,-481.99820833736817,-744.8554524622473,-366.68648257987667,868.6020336072374,-175.31573417298023,-5089.95776152611,0.0,-624.9429930225299,-2284.4074052927517,-23.772636964069875,-2757.557754176364,-827.0513579554829,-1174.7703132762908,1356.7323980193341,-2828.8362335903457,244.1996544858307,-654.8359270095509,186.69063557416325,-397.6473905073956,1203.4790246205735,-357.9678958499435,2780.1944603275924,-2309.763301198517,830.8201915534904,170.79399275383935,719.5344261441377,580.2151659442267,1373.2006968905885,288.4950695594106,48.64177326275353,967.7118184458385,850.524442209231,481.99820833736817,744.8554524622473,366.68648257987667,-868.6020336072374,175.31573417298023
Finger1,63.984307303646865,76.33288754805395,3.641963295054446,60.158845999369845,63.98430677738793,7.372558985377509,-0.599134290057691,61.9991511154829,-8.22929332272814,-0.03983844495086686,77.30481724521758,-0.05875897258658824,-0.2627771712194047,68.22819255082007,3.1274047749496816,-0.4180680871342686,960.3488616296797,0.0,-245.2466458535402,625.5648461204412,-228.42978451835722,597.0444239184613,-233.7299153172301,-199.47263999253823,-286.4418162442489,559.2683643744937,-258.0021036118362,-272.1355989720208,-163.2823723913791,-193.25102957628627,75.53615921404608,-46.289574319274166,-498.2703539059622,462.07850772371745,-169.23973002460085,-413.28251884591026,-138.2751274004102,-347.5574665096595,163.58141015668184,-14.781805699306915,-60.99801046853145,-253.23049858327192,133.12881944913994,6.793346288194158,63.32813123914459,13.05583288817678,-1.685363728208415,15.033368101434107,-960.3488616296797,0.0,245.2466458535402,-625.5648461204412,228.42978451835722,-597.0444239184613,233.7299153172301,199.47263999253823,286.4418162442489,-559.2683643744937,258.0021036118362,272.1355989720208,163.2823723913791,193.25102957628627,-75.53615921404608,46.289574319274166,498.2703539059622,-462.07850772371745,169.23973002460085,413.28251884591026,138.2751274004102,347.5574665096595,-163.58141015668184,14.781805699306915,60.99801046853145,253.23049858327192,-133.12881944913994,-6.793346288194158,-63.32813123914459,-13.05583288817678,1.685363728208415,-15.033368101434107
Finger1,52.405771662291194,57.98248910916941,72.08664639262203,76.90504528970217,52.88472162175731,1.295297666640181,-0.059865398327815456,76.90504458101842,3.105347545119912,-2.757273312330767,57.9658244347975,-3.0593288484176355,3.1259857148168066,51.65456011778127,1.5305119815542412,0.11089860503788174,695.0742837372034,0.0,-229.50106613223,375.48310165954075,-231.8071585965037,415.72067389717307,-33.30772348706243,-159.52396389300998,-378.511587505769,316.5626962314344,-8.570351417304892,-248.59088650791847,-37.20908639140407,-237.04966053319208,63.966332603604585,74.98339285118671,-695.0742837372034,0.0,229.50106613223,-375.48310165954075,231.8071585965037,-415.72067389717307,33.30772348706243,159.52396389300998,378.511587505769,-316.5626962314344,8.570351417304892,248.59088650791847,37.20908639140407,237.04966053319208,-63.966332603604585,-74.98339285118671
Finger1,35.98476394602182,38.802443128083404,9.258794130956701,37.65204496134756,35.98476345187704,1.4088401794433594,1.4088399410247803,39.59680696776204,-8.76842737303501,0.48662251771386167,57.9658244347975,-3.0593288484176355,3.1259857148168066,38.952388371776095,-1.0372418723499237,-0.5355032698753703,207.60587715538242,0.0,-67.78790780211617,118.71432861528906,-107.93904655643203,99.66683059895038,-10.77528205885703,-56.327334924484866,-207.60587715538242,0.0,67.78790780211617,-118.71432861528906,107.93904655643203,-99.66683059895038,10.77528205885703,56.327334924484866
Finger1,15.637794058385124,21.391163268991384,18.663180506766263,21.391163268991384,15.637793983000769,5.039158419266755,-1.0812368804852213,21.391162970069434,-1.363991141319275,-1.3639912605285645,57.9658244347975,-3.0593288484176355,3.1259857148168066,15.519746156269903,6.1015889519214,-1.6714760731632055,75.28785346752056,0.0,-37.02895732737651,38.25889614014406,-75.28785346752056,0.0,37.02895732737651,-38.25889614014406
Finger1,15.424810723639528,19.469526227307167,17.054366172930802,19.469526227307167,15.42481051516102,2.022357940673828,2.0223578214645386,19.469525955318012,-1.2075798511505127,-1.2075799703598022,57.9658244347975,-3.0593288484176355,3.1259857148168066,15.424810694660927,7.274652944311185,-3.229937589457421,51.94870312387749,0.0,-32.47917689657033,19.469526227307167,-51.94870312387749,0.0,32.47917689657033,-19.469526227307167
Finger1,9.1969526637269,34.70929596167292,7.773406709115412,40.56408991497835,9.178110103136646,11.072064802531543,-1.167353841675265,41.18224307943329,-3.5769618956220057,-0.6699520260943146,34.174462649864495,1.6721766453080988,-0.10813489446338309,10.552432230388547,8.047916595489937,-0.5078310208714738,514.1927977850395,0.0,-18.781551355471343,368.68150370077126,-65.64125433625733,339.27423821379375,-194.06620872401044,-42.291363161384204,-130.06295386631376,311.43374923452257,-204.93159331771946,-92.16739821044051,-124.57578777706192,-79.20054837189329,33.319849784908364,-65.60895183604904,-259.5403876229726,254.65241016206687,-169.7951712445522,-186.8523247588568,-115.80213643670176,-172.54667573417964,91.50755862561218,-67.03409388037737,-51.89336161154995,-133.25717257019517,80.18393900409572,-35.9138099607827,41.50986838089774,-12.853753530143337,12.314016130502452,14.231880169579554,-514.1927977850395,0.0,18.781551355471343,-368.68150370077126,65.64125433625733,-339.27423821379375,194.06620872401044,42.291363161384204,130.06295386631376,-311.43374923452257,204.93159331771946,92.16739821044051,124.57578777706192,79.20054837189329,-33.319849784908364,65.60895183604904,259.5403876229726,-254.65241016206687,169.7951712445522,186.8523247588568,115.80213643670176,172.54667573417964,-91.50755862561218,67.03409388037737,51.89336161154995,133.25717257019517,-80.18393900409572,35.9138099607827,-41.50986838089774,12.853753530143337,-12.314016130502452,-14.231880169579554
Finger1,50.24677016690318,51.61750371063944,5.257692220041248,6.1766197115415,50.246769734327785,4.091751251281039,-1.7031921243190027,6.158154621891072,-0.277572654766864,-0.005475490401845917,52.48079520128853,-1.4409803289349696,-0.7243154422422151,57.867927594468995,-5.500487918639841,0.05365909997895768,358.12341663919165,0.0,-127.46314438647155,216.15278716019228,-122.58519998417528,201.50841375058832,-48.17546557101998,-96.5424627035832,-192.34836249855658,165.7750541406351,-26.863684884216028,-148.90227832244867,-9.160051252031735,-98.81233511797504,26.454237945342893,16.519768034416884,-358.12341663919165,0.0,127.46314438647155,-216.15278716019228,122.58519998417528,-201.50841375058832,48.17546557101998,96.5424627035832,192.34836249855658,-165.7750541406351,26.863684884216028,148.90227832244867,9.160051252031735,98.81233511797504,-26.454237945342893,-16.519768034416884
Finger1,3.282514455531749,55.30990222372154,10.666528438253676,45.58800563460552,1.8844652870599532,9.412588782362945,-0.04841755277121251,46.54657664881107,-8.158086844301977,0.14653893970332632,54.007403524980816,1.7548143511419596,-0.28193905699780686,3.2493462442877217,10.77658953604464,-0.5329524742963416,801.7464725014056,0.0,-22.30310869166344,532.238375437906,-91.25657401120023,507.16628666471695,-210.46549886401925,-38.300591777521205,-198.80213938226441,483.7403363947626,-253.27930754494608,-111.35144448845242,-153.56180491980535,-97.9576052384388,17.324172103909145,-44.78302201690779,-404.4609584788409,397.2855140225647,-229.7795882712639,-253.44923758733808,-164.58420124428824,-243.823863225056,89.40607413974922,-61.4314073434675,-79.27937791592169,-199.97529162787123,85.71522257811083,-33.08927204583999,42.20215019184187,-5.944781472158056,2.004471519228897,6.612365632902389,-801.7464725014056,0.0,22.30310869166344,-532.238375437906,91.25657401120023,-507.16628666471695,210.46549886401925,38.300591777521205,198.80213938226441,-483.7403363947626,253.27930754494608,111.35144448845242,153.56180491980535,97.9576052384388,-17.324172103909145,44.78302201690779,404.4609584788409,-397.2855140225647,229.7795882712639,253.44923758733808,164.58420124428824,243.823863225056,-89.40607413974922,61.4314073434675,79.27937791592169,199.97529162787123,-85.71522257811083,33.08927204583999,-42.20215019184187,5.944781472158056,-2.004471519228897,-6.612365632902389
Finger1,48.19252976980958,49.5400583849916,42.10022913873961,45.73522347648808,47.75708485665004,5.189249153061155,-0.9681593394819998,45.83688357652369,-1.2012863646109508,-0.026050657805001265,54.007403524980816,1.7548143511419596,-0.28193905699780686,50.196592249857474,1.6123514891945945,-0.30741806808733685,486.90759060940627,0.0,-144.1620264720358,273.14071579483755,-173.81328709555402,271.9920207075934,-23.71687544051528,-101.13684919174605,-244.0876411153845,242.8199494940218,-52.18998076314202,-170.2013405672644,-27.904379592208898,-130.31042160616067,22.020969207970964,14.798547065406119,-486.90759060940627,0.0,144.1620264720358,-273.14071579483755,173.81328709555402,-271.9920207075934,23.71687544051528,101.13684919174605,244.0876411153845,-242.8199494940218,52.18998076314202,170.2013405672644,27.904379592208898,130.31042160616067,-22.020969207970964,-14.798547065406119
Finger1,5.891564241030997,39.595409343389164,32.90151950035014,35.8360853222647,4.070723247630269,8.570216931054802,-0.2330870603493338,35.83608482341138,-1.467282772064209,-1.467282772064209,39.427354243400885,0.9956457151230325,-0.21858699064711828,5.280506448603148,8.907852851917056,-0.5379723553158744,443.9423408539998,0.0,-61.77211044043732,304.0556949194557,-127.97414380188062,259.0978442285649,-117.8798415941822,-93.21966132757423,-216.27731491476564,227.66502593923414,-105.19930766973403,-146.54176168512916,-42.820529313799284,-107.92554998295742,33.11793342828651,-10.47798393416987,-443.9423408539998,0.0,61.77211044043732,-304.0556949194557,127.97414380188062,-259.0978442285649,117.8798415941822,93.21966132757423,216.27731491476564,-227.66502593923414,105.19930766973403,146.54176168512916,42.820529313799284,107.92554998295742,-33.11793342828651,10.47798393416987
Finger1,38.864710759318605,42.83226120198854,9.727639649059682,45.27760972140488,38.86471022671317,1.9837756156921387,1.9837753772735596,45.9732999821123,-10.128082976624057,0.20960162552690775,42.497471247118625,1.3480164133471249,-0.14273755651926479,37.013689812114734,5.992127062190562,-0.7773955837622495,446.28249883639256,0.0,-111.4826257778245,259.5020126152051,-132.43510737753172,261.6418284314488,-50.00588247640858,-73.70113310198086,-229.8052609647458,216.47723787164676,-52.399404907515304,-148.20500077829712,-31.836567466702974,-119.768457532534,20.138709774493634,4.909612749497519,-446.28249883639256,0.0,111.4826257778245,-259.5020126152051,132.43510737753172,-261.6418284314488,50.00588247640858,73.70113310198086,229.8052609647458,-216.47723787164676,52.399404907515304,148.20500077829712,31.836567466702974,119.768457532534,-20.138709774493634,-4.909612749497519
Finger1,56.22324739959136,60.759491137164765,8.578825567607892,56.874038416377815,56.223246627688,2.2681221961975098,2.2681221961975098,58.309801740730194,-6.8768979614014825,-0.29064958899376236,59.505836008920824,3.8079268275076856,-0.6816642517406564,57.11786709719681,4.387084649212596,-0.645610534340145,670.1198153857022,0.0,-189.16190839128208,402.1716657732127,-209.91382122552,388.25998418638653,-89.89907523288052,-146.68250458745575,-346.8886013024357,323.2312140832664,-73.63141807270819,-244.60847570146012,-41.371382883950844,-182.42722155698056,43.99357816683599,22.401465227446607,-670.1198153857022,0.0,189.16190839128208,-402.1716657732127,209.91382122552,-388.25998418638653,89.89907523288052,146.68250458745575,346.8886013024357,-323.2312140832664,73.63141807270819,244.60847570146012,41.371382883950844,182.42722155698056,-43.99357816683599,-22.401465227446607
Finger1,59.015454598436754,61.677368854810375,52.7168861321139,55.78416695562677,59.12307867515278,4.963703413248481,-1.3827160718517746,55.78416618085255,-1.5336394309997559,-1.533639907836914,59.505836008920824,3.8079268275076856,-0.6816642517406564,59.59594942210475,3.7615088579915437,-1.0651048390056417,355.4175638531494,0.0,-153.03038005136054,188.652477446035,-177.99636897684076,177.42119487630862,-10.656108469194251,-101.42750592007424,-355.4175638531494,0.0,153.03038005136054,-188.652477446035,177.99636897684076,-177.42119487630862,10.656108469194251,101.42750592007424
Finger1,6.43281953228488,52.25772612830764,42.50341330044978,52.06639692447854,5.349999841185792,2.978716591810411,0.5790039984003954,52.06639629889817,-6.678294844288757,0.9484016629988901,51.7408511226497,2.960844433514467,-0.8933458846206292,-2.3348727136233265,11.177722311642867,-0.5890203769291222,458.64575000375703,0.0,-95.8165552115098,284.90233865550897,-119.34909531962968,264.01887033534854,-65.04556151343743,-81.31941890781249,-241.86774055684765,216.7780094469094,-63.004880791268704,-168.6430973269012,-22.151129778500888,-98.94869444941692,16.023018747336376,32.70669719960989,-458.64575000375703,0.0,95.8165552115098,-284.90233865550897,119.34909531962968,-264.01887033534854,65.04556151343743,81.31941890781249,241.86774055684765,-216.7780094469094,63.004880791268704,168.6430973269012,22.151129778500888,98.94869444941692,-16.023018747336376,-32.70669719960989
Finger1,8.879111114686104,52.73156214815952,7.932497641613963,47.495914090147515,8.376491120778269,2.0318305596631205,0.2632671932869002,48.62757083529853,-6.310428837815223,-0.4147477607663923,52.140408271645185,1.1599500086124976,-0.19862526464464025,-2.891266376094677,8.823984803740615,-0.3514933647658305,846.1721035297702,0.0,-74.4866395078451,515.959868770145,-127.24555346530535,535.1639833580439,-142.66255648971193,-64.98072472950955,-209.7769225834261,511.593026931542,-218.1358878802163,-127.74407731816956,-164.59750422051619,-122.52044592402399,26.43535810105898,-22.14794116349252,-423.1282134871279,423.0438900426423,-198.73217522593146,-263.8030995697909,-163.64207248215138,-270.4928160571876,73.9420103103998,-27.73655168497737,-88.46481344441412,-211.56035618200505,78.89909610602837,-21.28896233272144,51.456442107579846,-0.10910682484623635,-6.189826100580731,4.268715888084791,-846.1721035297702,0.0,74.4866395078451,-515.959868770145,127.24555346530535,-535.1639833580439,142.66255648971193,64.98072472950955,209.7769225834261,-511.593026931542,218.1358878802163,127.74407731816956,164.59750422051619,122.52044592402399,-26.43535810105898,22.14794116349252,423.1282134871279,-423.0438900426423,198.73217522593146,263.8030995697909,163.64207248215138,270.4928160571876,-73.9420103103998,27.73655168497737,88.46481344441412,211.56035618200505,-78.89909610602837,21.28896233272144,-51.456442107579846,0.10910682484623635,6.189826100580731,-4.268715888084791
Finger1,6.626132193429747,46.0252003947507,10.089466932098295,47.79554766991774,5.597478224213944,5.18929892706177,0.6048754943235721,48.17194351630859,-4.208269924137852,-0.7071456832376555,45.40549527104713,1.8146003040037044,-0.1613283165295627,3.233628810923051,10.087999338558632,-0.5066667808389989,729.9255019046026,0.0,-7.784537322747575,477.516652856178,-79.8424352639814,455.89700437328645,-175.5041398301271,-15.356782974530073,-181.48753535877512,442.1314788228721,-231.26598340261825,-89.28786587986221,-135.1688000520665,-78.92746161467097,-0.46261732676525646,-45.401253137799515,-365.25178505251927,364.6737168520833,-218.7646677557255,-219.04308248490406,-150.26188698359968,-209.80092566763375,61.77370354964751,-68.99481134056381,-76.87969377035284,-184.77219173877796,79.01314861578194,-41.56593569166952,33.88696107627953,-16.501820392852437,16.556302767896,11.389178552588174,-729.9255019046026,0.0,7.784537322747575,-477.516652856178,79.8424352639814,-455.89700437328645,175.5041398301271,15.356782974530073,181.48753535877512,-442.1314788228721,231.26598340261825,89.28786587986221,135.1688000520665,78.92746161467097,0.46261732676525646,45.401253137799515,365.25178505251927,-364.6737168520833,218.7646677557255,219.04308248490406,150.26188698359968,209.80092566763375,-61.77370354964751,68.99481134056381,76.87969377035284,184.77219173877796,-79.01314861578194,41.56593569166952,-33.88696107627953,16.501820392852437,-16.556302767896,-11.389178552588174
Finger1,9.549688142168224,47.973166682133716,5.848999569020489,42.823415462990454,9.93151182287707,8.473883326110524,-0.36102668909273916,44.81211911044089,-6.909129268252983,0.22134315249786862,47.36018180264858,2.1736059984763187,-0.3831254407332807,13.381250962176182,7.458032280278616,-0.39562289341520174,707.2855779483131,0.0,-41.14922008164536,473.078253209663,-90.41326019884957,447.4068583046527,-191.74392534529704,-50.03327425277606,-181.1610466915809,426.19356342450544,-226.65443764321708,-118.12121347385373,-136.6747140269889,-95.12077623274203,25.057180246850574,-41.718747882353355,-350.6863768568818,356.59920109143127,-204.04817644398923,-235.43203837230382,-146.79217956112882,-215.32859058001446,85.13773504200918,-56.977588462710784,-75.50718656762368,-178.5543701687973,86.14055949079363,-29.99530661315697,40.63561398884039,-9.952596038063888,4.2471307614354075,7.790729516963969,-707.2855779483131,0.0,41.14922008164536,-473.078253209663,90.41326019884957,-447.4068583046527,191.74392534529704,50.03327425277606,181.1610466915809,-426.19356342450544,226.65443764321708,118.12121347385373,136.6747140269889,95.12077623274203,-25.057180246850574,41.718747882353355,350.6863768568818,-356.59920109143127,204.04817644398923,235.43203837230382,146.79217956112882,215.32859058001446,-85.13773504200918,56.977588462710784,75.50718656762368,178.5543701687973,-86.14055949079363,29.99530661315697,-40.63561398884039,9.952596038063888,-4.2471307614354075,-7.790729516963969
Finger1,4.687102868355784,46.883236668106946,44.06392402713915,47.63936839244328,1.5487288856525936,7.654065011095753,-0.15349952989518556,47.63936772966625,-1.7877216339111328,-1.7877216339111328,45.94804308078204,3.425293823227321,-0.6879041614437398,-1.157847202898381,10.461934834990927,-0.5439201106154936,447.43083157996375,0.0,-92.44656166298515,289.8591156276881,-115.18837260810257,253.86298824560436,-78.58881521793758,-89.08968751121068,-235.00577697365702,212.42505460630673,-69.96371392724458,-172.78346442032256,-18.857211271947335,-87.49417891356995,15.785712165955744,32.24749391690862,-447.43083157996375,0.0,92.44656166298515,-289.8591156276881,115.18837260810257,-253.86298824560436,78.58881521793758,89.08968751121068,235.00577697365702,-212.42505460630673,69.96371392724458,172.78346442032256,18.857211271947335,87.49417891356995,-15.785712165955744,-32.24749391690862
Finger1,7.127774847608663,49.94634895828124,48.66838274779592,52.59559191109402,4.832931054772018,6.388609757895807,-0.08102949312658936,52.595591179387895,-1.96360445022583,-1.96360445022583,49.25547229811406,1.8629855739310983,-0.20531932576932377,2.1564497607649287,8.765586303443683,-0.3737644652115577,573.3623761048966,0.0,-52.28261584997768,391.714981870234,-161.38322906051303,350.76381394249006,-167.55223756863114,-89.43566336090858,-301.0192756725328,272.34310043236377,-151.59945692185417,-207.39291543490884,-49.744538269957275,-176.74027502277363,73.03198084734733,-41.584960232031094,-573.3623761048966,0.0,52.28261584997768,-391.714981870234,161.38322906051303,-350.76381394249006,167.55223756863114,89.43566336090858,301.0192756725328,-272.34310043236377,151.59945692185417,207.39291543490884,49.744538269957275,176.74027502277363,-73.03198084734733,41.584960232031094
Finger1,2.3969406122918504,59.13688516935318,8.135953733506483,51.52022253509509,1.9742495604862142,6.619660335724319,0.09233032938475816,53.40197432695962,-8.87939654106495,-0.11139306825725726,59.48411154697669,-0.050082626023254306,-0.16560522947791156,-4.00545422743005,11.857817421550564,-0.562970799848169,790.300924145285,0.0,11.525833082644311,513.6811382357561,-107.15758813346797,479.77758507836165,-168.60923403592398,-18.885793531702788,-199.0992086008955,475.382294796545,-240.58815360146707,-83.15176394060344,-118.49372229244683,-88.99483578036116,-12.469069850857544,-23.254454279143484,-397.5948299660513,392.7060941792337,-236.65253986717414,-224.63315135613885,-141.93332018354505,-231.47678017113904,57.94162504721239,-52.38792360520877,-77.78746483049375,-196.89868381309617,71.93521621622729,-38.21721357101546,30.736565319629836,2.13265034692148,1.020450608523002,-3.5708782430589707,-790.300924145285,0.0,-11.525833082644311,-513.6811382357561,107.15758813346797,-479.77758507836165,168.60923403592398,18.885793531702788,199.0992086008955,-475.382294796545,240.58815360146707,83.15176394060344,118.49372229244683,88.99483578036116,12.469069850857544,23.254454279143484,397.5948299660513,-392.7060941792337,236.65253986717414,224.63315135613885,141.93332018354505,231.47678017113904,-57.94162504721239,52.38792360520877,77.78746483049375,196.89868381309617,-71.93521621622729,38.21721357101546,-30.736565319629836,-2.13265034692148,-1.020450608523002,3.5708782430589707
Finger1,45.12100367523599,48.69110025318883,41.57726253311562,48.19614193927409,45.121003055675416,1.785048484802246,1.785048484802246,48.19614126522147,-3.309439182281494,-3.3094394207000732,47.698099499636044,3.6809922736620706,-0.8197010146634938,44.430403918558994,6.104092436050564,-1.084177453243747,340.5386207860988,0.0,-127.4790107733063,199.48872163588896,-189.94848047968742,150.5901403064114,-9.540241156201546,-123.54135478440253,-340.5386207860988,0.0,127.4790107733063,-199.48872163588896,189.94848047968742,-150.5901403064114,9.540241156201546,123.54135478440253
Finger1,54.118655810928715,60.47355143538005,43.743783479993155,46.87549988655856,53.846060776305734,5.646722846429157,-1.1155648104191869,46.87549923486312,-1.5658574104309082,-1.5658578872680664,60.572061297600584,1.7081168212292823,-2.1021580340598405,55.32735555340878,3.3307655246600802,-0.75304774716151,430.4535950684138,0.0,-112.40488486940659,258.75819688039303,-217.77331813982846,212.68027692858533,-40.9848787405646,-111.37262840869316,-430.4535950684138,0.0,112.40488486940659,-258.75819688039303,217.77331813982846,-212.68027692858533,40.9848787405646,111.37262840869316
Finger1,3.3157410801756493,50.83150549432219,7.792255332270523,54.268576032229106,1.2044575221744367,9.638326121279079,-0.17673730368883156,54.51195814232089,-4.877160394215366,-0.9063716684999754,50.37840882978685,1.199728428525077,-0.061022740737691095,-0.6316070364151756,11.793580551104412,-0.5848167052559425,783.6509019930393,0.0,16.394069972691966,513.224376180711,-74.81535511031475,493.02165340806323,-190.69021680080158,2.1767816451729693,-194.3943551344676,475.0199333342247,-251.9051672259966,-83.00114340302136,-148.91254473993243,-83.4185988005924,-7.848010238672124,-48.763110922155896,-391.1286627384379,392.5222392546014,-245.05126823900096,-221.9685156820208,-168.73435469753707,-224.04653921152504,58.58222763753909,-79.36627836612904,-83.89127059578675,-198.1952847775648,79.7203306388596,-46.05542542783439,38.38869295428887,-17.691889177233193,15.256024275799515,4.334243772992302,-783.6509019930393,0.0,-16.394069972691966,-513.224376180711,74.81535511031475,-493.02165340806323,190.69021680080158,-2.1767816451729693,194.3943551344676,-475.0199333342247,251.9051672259966,83.00114340302136,148.91254473993243,83.4185988005924,7.848010238672124,48.763110922155896,391.1286627384379,-392.5222392546014,245.05126823900096,221.9685156820208,168.73435469753707,224.04653921152504,-58.58222763753909,79.36627836612904,83.89127059578675,198.1952847775648,-79.7203306388596,46.05542542783439,-38.38869295428887,17.691889177233193,-15.256024275799515,-4.334243772992302
Finger1,3.328842064182782,67.97585746959307,7.054117247830891,57.166929143612506,0.8965215479239532,3.3392189480890693,0.28642911103720436,58.25436613082648,-9.711526521078156,-0.13762151887846485,68.18605737093816,0.13261692613832565,-0.19430797000767797,-13.604927996159404,11.780715990855825,-0.44401646793886584,1018.4109043162644,0.0,-61.954485936484005,634.8934805513995,-129.14488144447864,650.8387897844664,-200.0000384618824,-56.257811615740025,-249.93955173598988,616.1418576660842,-283.53918639335166,-146.02551449382122,-210.2343390621116,-135.42356802794552,25.610925122327888,-42.2639975179365,-510.3338377092419,508.0770666070226,-256.710669669071,-312.1652546091012,-211.054525153339,-316.90105090636916,88.17778834756305,-52.31655483237746,-105.80801995684232,-253.35995103252668,96.72814317393801,-29.868420733559645,58.91840824692495,-13.102183600778204,1.7347741001079697,0.6748710314445372,-1018.4109043162644,0.0,61.954485936484005,-634.8934805513995,129.14488144447864,-650.8387897844664,200.0000384618824,56.257811615740025,249.93955173598988,-616.1418576660842,283.53918639335166,146.02551449382122,210.2343390621116,135.42356802794552,-25.610925122327888,42.2639975179365,510.3338377092419,-508.0770666070226,256.710669669071,312.1652546091012,211.054525153339,316.90105090636916,-88.17778834756305,52.31655483237746,105.80801995684232,253.35995103252668,-96.72814317393801,29.868420733559645,-58.91840824692495,13.102183600778204,-1.7347741001079697,-0.6748710314445372
Finger1,41.88190435342968,49.839241388421435,9.425141352848566,40.47477341503816,41.881903977373554,3.0119745869752705,0.4833470624350298,41.05153434615733,-7.0663255178594255,-0.2687826306683263,50.02307479111971,0.9846546578658035,-0.2722584656934366,42.240280204565494,3.9769756546369024,-0.4477806824792889,596.6892545112846,0.0,-158.3486992295792,373.1276087197912,-178.94411824188086,348.46743882947624,-105.84886906031498,-133.46920245209006,-310.4856497334967,286.20360477778786,-81.00958346994531,-229.15056129438022,-37.98178909597951,-160.64032669051983,47.9549504625184,13.79582895904585,-596.6892545112846,0.0,158.3486992295792,-373.1276087197912,178.94411824188086,-348.46743882947624,105.84886906031498,133.46920245209006,310.4856497334967,-286.20360477778786,81.00958346994531,229.15056129438022,37.98178909597951,160.64032669051983,-47.9549504625184,-13.79582895904585
Finger1,47.54801844190284,49.031777467854376,37.11001150243467,41.633096169874975,47.385882193772346,4.032749138471388,-0.8925837528424552,41.633095702390875,-3.2461151874448433,0.4922865390603306,50.02307479111971,0.9846546578658035,-0.2722584656934366,48.51381452560429,2.3537924160486057,-0.6136781388621628,368.1017648986317,0.0,-98.60669087950004,218.5415301701726,-187.2152321433417,180.88653275529003,-31.326298026830898,-92.66233120332728,-368.1017648986317,0.0,98.60669087950004,-218.5415301701726,187.2152321433417,-180.88653275529003,31.326298026830898,92.66233120332728
Finger1,7.279056264013301,54.08626811223204,4.851707349797143,46.18481386878837,5.5573353277462445,11.271381195828894,-0.4998660337700329,47.69356351493825,-12.268720869060445,0.6884569389335997,54.98247109218795,-0.5277737917433285,-0.0908655253762305,8.624819411472316,10.132455286609385,-0.5572570689432821,721.2379324815715,0.0,-9.352793834427498,491.27722582608226,-59.632649141371246,457.84441760549566,-209.75885766855208,-23.48248971653841,-178.3703711914506,437.1349274943246,-249.84445330584555,-100.96004927900594,-145.13601052638973,-71.45336093154185,13.186171052895524,-52.159060518208946,-360.54302375108637,360.69490873048517,-226.32457196532567,-231.78771925381744,-163.6839951783603,-204.5426452815188,81.40504276772248,-76.40409063072867,-76.59190374323822,-181.9975706234356,87.06827960721273,-48.510430463856295,34.800172823374695,-26.32822817004103,22.954557019120646,10.1346690836831,-721.2379324815715,0.0,9.352793834427498,-491.27722582608226,59.632649141371246,-457.84441760549566,209.75885766855208,23.48248971653841,178.3703711914506,-437.1349274943246,249.84445330584555,100.96004927900594,145.13601052638973,71.45336093154185,-13.186171052895524,52.159060518208946,360.54302375108637,-360.69490873048517,226.32457196532567,231.78771925381744,163.6839951783603,204.5426452815188,-81.40504276772248,76.40409063072867,76.59190374323822,181.9975706234356,-87.06827960721273,48.510430463856295,-34.800172823374695,26.32822817004103,-22.954557019120646,-10.1346690836831
Finger1,3.0018869137302397,48.16060781837943,9.614961809058766,55.99115476176701,0.4341360664153626,4.673929264931729,0.209782201048327,56.27039526366228,-4.313924865510202,-0.3741871088979245,47.2093980049998,1.1486742545381503,0.050314175283261875,-7.682193141160667,10.49854932238516,-0.4384072234589782,815.687123213112,0.0,-20.195644283758263,505.8733498373403,-93.86249649610846,513.4230864876702,-147.936380105872,-22.02621860362657,-203.6729005539694,493.6294602608525,-228.08568660427554,-98.3862615437245,-157.11807307519405,-93.1309046897563,1.3451757938449678,-30.734211414262795,-412.5366754352914,403.15044777782066,-213.84895512461924,-236.0877386672334,-169.0418704730455,-246.82600964998872,58.68194749863696,-47.53831109085721,-81.09278482556115,-208.25431471620294,74.84035450676649,-31.56473009306862,43.69671838511946,-18.294418875110154,12.924450059739144,4.120465082962926,-815.687123213112,0.0,20.195644283758263,-505.8733498373403,93.86249649610846,-513.4230864876702,147.936380105872,22.02621860362657,203.6729005539694,-493.6294602608525,228.08568660427554,98.3862615437245,157.11807307519405,93.1309046897563,-1.3451757938449678,30.734211414262795,412.5366754352914,-403.15044777782066,213.84895512461924,236.0877386672334,169.0418704730455,246.82600964998872,-58.68194749863696,47.53831109085721,81.09278482556115,208.25431471620294,-74.84035450676649,31.56473009306862,-43.69671838511946,18.294418875110154,-12.924450059739144,-4.120465082962926
Finger1,4.405199600145029,58.998162675586435,56.07194102168985,60.82888428456934,-0.15334454971571176,7.341972261960933,-0.06323019638119831,60.82888343806947,-2.3784713745117188,-2.3784708976745605,58.70213027426411,1.3723941781919393,-0.18826629871585965,-3.6423619561991813,10.329695971549,-0.4124524989877205,551.2106693168062,0.0,-85.65739729765825,375.9601058798089,-169.87217343621816,318.0650162089965,-140.16486031695172,-128.58235704248986,-263.10016857775446,288.11050073905164,-128.2312568357582,-180.57633699735828,-54.96484763124204,-135.45225966918625,42.55486689856869,-9.009663774066226,-551.2106693168062,0.0,85.65739729765825,-375.9601058798089,169.87217343621816,-318.0650162089965,140.16486031695172,128.58235704248986,263.10016857775446,-288.11050073905164,128.2312568357582,180.57633699735828,54.96484763124204,135.45225966918625,-42.55486689856869,9.009663774066226
Finger1,6.887614072570881,44.19087132460822,4.022247095444569,45.74234357878613,6.0092118163883015,6.6875922317685195,-0.17245702206173874,47.1637496880539,-6.546903612450826,0.18257736093668875,44.15919812064473,0.44944048122255253,-0.046065235933824056,6.519231876567034,7.621284340745291,-0.3876293991701254,620.4988434095462,0.0,-11.926685954708436,419.202522221975,-79.64097033040566,394.9068472170063,-176.88637966417346,-30.17308133419631,-163.44161760115878,370.2568116798906,-211.08865066839553,-93.24912077109363,-121.50620812273888,-86.22020275911693,15.879896876998657,-47.88909331868448,-310.7814556178318,309.7173877917145,-192.88408885869526,-199.12996520378405,-128.6339444894552,-191.9390102964178,71.8516185691569,-62.695321340735276,-59.47535606205881,-155.1672550252983,73.39323835682104,-35.594931096839616,33.85211687857364,-9.622997742324657,11.37831133089609,4.888964795747928,-620.4988434095462,0.0,11.926685954708436,-419.202522221975,79.64097033040566,-394.9068472170063,176.88637966417346,30.17308133419631,163.44161760115878,-370.2568116798906,211.08865066839553,93.24912077109363,121.50620812273888,86.22020275911693,-15.879896876998657,47.88909331868448,310.7814556178318,-309.7173877917145,192.88408885869526,199.12996520378405,128.6339444894552,191.9390102964178,-71.8516185691569,62.695321340735276,59.47535606205881,155.1672550252983,-73.39323835682104,35.594931096839616,-33.85211687857364,9.622997742324657,-11.37831133089609,-4.888964795747928
Finger1,5.823034580140609,49.91638888694454,8.22580867086239,53.852299455054585,4.258789118854196,12.198890840357024,-0.5620834190966661,53.7299596683862,-3.889927533443071,-0.6334109591878274,48.00776544252858,3.410641274842078,-0.3070284612716492,5.960438449010496,11.288071477900914,-0.5883732784834006,810.6603519869791,0.0,-12.70364440840828,539.4804765988883,-102.36851048365227,513.1961897327794,-214.18045102502137,-37.504846618691204,-205.0922299163962,488.00273888190753,-267.30441944411393,-112.8091210381912,-157.77520698825046,-105.14340443388936,18.619815112322676,-55.26062522635918,-404.9365501113448,405.7238018756343,-246.26424234579702,-252.48580014651844,-167.08382775903357,-247.35939817196564,88.1802630767285,-72.89078896315549,-83.06618877056277,-202.38105437877002,92.15443098831292,-43.64374003337829,43.44733238651899,-12.623610927791802,11.139942045672484,9.819151695658853,-810.6603519869791,0.0,12.70364440840828,-539.4804765988883,102.36851048365227,-513.1961897327794,214.18045102502137,37.504846618691204,205.0922299163962,-488.00273888190753,267.30441944411393,112.8091210381912,157.77520698825046,105.14340443388936,-18.619815112322676,55.26062522635918,404.9365501113448,-405.7238018756343,246.26424234579702,252.48580014651844,167.08382775903357,247.35939817196564,-88.1802630767285,72.89078896315549,83.06618877056277,202.38105437877002,-92.15443098831292,43.64374003337829,-43.44733238651899,12.623610927791802,-11.139942045672484,-9.819151695658853
Finger1,4.743172320352522,50.63504073743669,11.896002572883623,53.20978217792811,3.303807167223283,8.252551483613871,-0.18599804440849965,54.3893322750484,-6.553022476911451,-0.44756451152738563,49.37667832512267,2.474420397521726,-0.22882605089208852,-0.0031385586732994852,10.79088380215633,-0.5036186429021656,820.6341835914409,0.0,-16.004409168338793,519.3961880857041,-110.70410681216761,510.5443770307005,-162.31827268689818,-29.672588070848214,-208.1997722088399,491.4966170713571,-234.00889913607057,-100.3192472021307,-140.80089277759637,-104.88057907135408,1.3422793090526461,-25.867441334453325,-412.38122301466797,408.2529605767729,-224.0680086082095,-238.24853731513412,-156.03108629856905,-249.45581413391318,62.49571175681331,-44.574260967015476,-79.1153940566891,-201.45490961024535,70.63240522070326,-29.277087612517875,37.195509485258576,1.0230892491136245,-2.053260556121309,-5.076258427783541,-820.6341835914409,0.0,16.004409168338793,-519.3961880857041,110.70410681216761,-510.5443770307005,162.31827268689818,29.672588070848214,208.1997722088399,-491.4966170713571,234.00889913607057,100.3192472021307,140.80089277759637,104.88057907135408,-1.3422793090526461,25.867441334453325,412.38122301466797,-408.2529605767729,224.0680086082095,238.24853731513412,156.03108629856905,249.45581413391318,-62.49571175681331,44.574260967015476,79.1153940566891,201.45490961024535,-70.63240522070326,29.277087612517875,-37.195509485258576,-1.0230892491136245,2.053260556121309,5.076258427783541
Finger1,7.041079262743789,55.67722902920386,1.0485293917262783,51.5394936372348,4.130015517764548,6.615924982825874,0.01528285704157284,50.703479654763726,-4.061117117267031,-0.14921821633859178,55.67722851380893,2.068868334600552,-2.0688678812717285,1.8461209012519646,10.234687280749384,-0.5537858203768273,613.662025055118,0.0,1.900448901318839,436.93580243212,-82.03832169901264,375.5800114102093,-203.30288117654646,-29.693243935585414,-163.66636094105337,366.9287662380077,-225.33033700337234,-90.98977692203289,-97.26585140086083,-74.6557754466777,6.429449836765171,-49.20402619249423,-312.7810091624209,300.881015892697,-202.75160777310376,-204.23909485272213,-109.77167068989442,-180.72551541156244,79.48103168206471,-67.62406063297212,-54.14775707558681,-159.232870918601,82.21135807795702,-33.99345944329535,26.88205647228331,-2.211097178475029,8.327852366745464,12.052861483056738,-613.662025055118,0.0,-1.900448901318839,-436.93580243212,82.03832169901264,-375.5800114102093,203.30288117654646,29.693243935585414,163.66636094105337,-366.9287662380077,225.33033700337234,90.98977692203289,97.26585140086083,74.6557754466777,-6.429449836765171,49.20402619249423,312.7810091624209,-300.881015892697,202.75160777310376,204.23909485272213,109.77167068989442,180.72551541156244,-79.48103168206471,67.62406063297212,54.14775707558681,159.232870918601,-82.21135807795702,33.99345944329535,-26.88205647228331,2.211097178475029,-8.327852366745464,-12.052861483056738
Finger1,8.739671682922546,44.888319682585035,5.42667637843126,48.662751504163566,8.510664367257704,12.909409087037943,-0.9394213085481624,50.13163933628478,-7.838241180571821,0.3014415930455101,43.777906493550745,2.9587692701218202,-0.3314939948119573,17.120741683781006,7.544145790386295,-0.4646617386815537,628.0880394767839,0.0,-67.08349714688819,448.7185256373664,-96.83491906188908,403.7558833721642,-224.68049429335986,-89.63652973219882,-157.99554696876763,379.53748495519005,-234.69951527689454,-139.41472929054578,-134.1884011890205,-96.95539651569385,56.31918155967635,-58.90233172785233,-316.58768529390784,311.5003541828761,-184.06955188851475,-251.40211522743567,-126.13078378706862,-209.89407854691842,125.91069654554602,-53.597936469490875,-62.949799661282185,-159.9548060157939,103.71395199470177,-26.185358772638295,44.57700140032651,-5.754173250409863,0.8384768131562197,21.764824643117016,-628.0880394767839,0.0,67.08349714688819,-448.7185256373664,96.83491906188908,-403.7558833721642,224.68049429335986,89.63652973219882,157.99554696876763,-379.53748495519005,234.69951527689454,139.41472929054578,134.1884011890205,96.95539651569385,-56.31918155967635,58.90233172785233,316.58768529390784,-311.5003541828761,184.06955188851475,251.40211522743567,126.13078378706862,209.89407854691842,-125.91069654554602,53.597936469490875,62.949799661282185,159.9548060157939,-103.71395199470177,26.185358772638295,-44.57700140032651,5.754173250409863,-0.8384768131562197,-21.764824643117016
Finger1,43.60973200631994,47.058680564690114,8.327478736244917,43.81006670019899,43.60973140750891,1.7244744300842285,1.7244749069213867,44.807846330331415,-7.211226507225447,-0.07934066271104001,47.058680126589465,1.6243074838165512,-1.6243070944452143,45.332341221709285,1.1361658594636594,-0.7728273050382501,291.23627216159525,0.0,-104.6664340120005,177.65925828650222,-106.61306222693077,161.39063866470593,-42.04304294216231,-82.07930544083047,-156.0668194324066,135.1694527291887,-24.820768008863737,-121.53573436329532,-5.323819232299343,-82.16904685576847,22.3121924736861,6.921025850346439,-291.23627216159525,0.0,104.6664340120005,-177.65925828650222,106.61306222693077,-161.39063866470593,42.04304294216231,82.07930544083047,156.0668194324066,-135.1694527291887,24.820768008863737,121.53573436329532,5.323819232299343,82.16904685576847,-22.3121924736861,-6.921025850346439
Finger1,2.867302502876017,50.631442492090535,8.038279888653639,47.51189760351202,0.7109310023384694,6.232620822467027,0.18376669750510644,48.905631520125304,-11.50249621264635,0.6012686772819862,50.405642423416964,0.6481169411948997,-0.10012828790123862,-1.7909663440912027,9.840303044344779,-0.4314736140496378,810.9620789688535,0.0,-56.76253313507684,516.6533285934431,-109.1198372944201,507.6698546753779,-171.16646121957785,-54.27242592447303,-199.78747397645893,491.4531016196744,-231.4695700204603,-124.53771160270102,-150.5410924962821,-101.09529621334727,17.00334433749129,-31.626389357450183,-404.938194450125,406.02388451872844,-207.34903167361767,-260.83810070353667,-162.67653441134513,-250.6149226810747,84.69747166028549,-40.72574470758768,-86.51490716954933,-203.55099863188948,87.58439410918969,-20.30718521419638,45.097733011452384,-9.229793438394324,-1.5934482260916063,10.081526217477625,-810.9620789688535,0.0,56.76253313507684,-516.6533285934431,109.1198372944201,-507.6698546753779,171.16646121957785,54.27242592447303,199.78747397645893,-491.4531016196744,231.4695700204603,124.53771160270102,150.5410924962821,101.09529621334727,-17.00334433749129,31.626389357450183,404.938194450125,-406.02388451872844,207.34903167361767,260.83810070353667,162.67653441134513,250.6149226810747,-84.69747166028549,40.72574470758768,86.51490716954933,203.55099863188948,-87.58439410918969,20.30718521419638,-45.097733011452384,9.229793438394324,1.5934482260916063,-10.081526217477625
Finger1,6.314195724160227,50.41159653552054,11.058464781833614,49.93124230963354,4.9712304315059725,7.987225411319628,-0.037843531525538765,51.603805404127044,-10.6889484167843,0.4262604071788374,48.4523972090164,3.402738681853833,-0.30036164322499204,2.698116346272286,10.646481219034158,-0.4953981073739948,878.4325877265638,0.0,-38.8990061655309,557.9110395737455,-116.43026965974114,552.5406982204318,-183.64588689657018,-44.21887187100632,-225.28244711283338,529.6027446338351,-253.35844853945008,-126.05985976761428,-166.6881202927883,-117.35390938058833,17.775512939685797,-37.397505995652544,-438.470865614492,439.9617221120718,-239.5234316959851,-268.4109752750132,-174.28041574495347,-264.90428927312564,73.94218800122769,-56.70239816760538,-91.13187901934307,-223.8172364300967,91.89669929248484,-32.923726843705936,48.103288924222646,-10.639274044788479,5.6365875410074295,6.035135712774033,-878.4325877265638,0.0,38.8990061655309,-557.9110395737455,116.43026965974114,-552.5406982204318,183.64588689657018,44.21887187100632,225.28244711283338,-529.6027446338351,253.35844853945008,126.05985976761428,166.6881202927883,117.35390938058833,-17.775512939685797,37.397505995652544,438.470865614492,-439.9617221120718,239.5234316959851,268.4109752750132,174.28041574495347,264.90428927312564,-73.94218800122769,56.70239816760538,91.13187901934307,223.8172364300967,-91.89669929248484,32.923726843705936,-48.103288924222646,10.639274044788479,-5.6365875410074295,-6.035135712774033
Finger1,4.680563611968486,53.40278159470438,9.632549913778817,46.59140378010967,5.217786255907498,8.512516715186962,-0.24844583623094252,47.28142058954782,-3.811241583842815,-0.788965373296417,53.156543302123396,1.9991734359832094,-0.42867849886309983,3.38323882468751,10.492293800015332,-0.5328335991202309,745.1016087035206,0.0,-6.573307204502015,491.88267893607446,-100.70288915726728,457.4104726888228,-174.93613069905064,-32.141759796429604,-183.64298097038028,452.0964818533568,-242.46437330018165,-95.13976192819473,-124.76630603493187,-85.45145812400236,2.4175409056228325,-33.17600969073071,-369.39868007611665,375.70292862740394,-227.56899153852177,-225.3559287699431,-143.0204724030196,-218.60465827293467,67.4259527909982,-56.29076638753468,-82.69780177724016,-187.11308751281177,82.06440005204031,-41.62420776158788,34.71950534897438,-7.6711573921185305,5.941185907100586,3.138602101585807,-745.1016087035206,0.0,6.573307204502015,-491.88267893607446,100.70288915726728,-457.4104726888228,174.93613069905064,32.141759796429604,183.64298097038028,-452.0964818533568,242.46437330018165,95.13976192819473,124.76630603493187,85.45145812400236,-2.4175409056228325,33.17600969073071,369.39868007611665,-375.70292862740394,227.56899153852177,225.3559287699431,143.0204724030196,218.60465827293467,-67.4259527909982,56.29076638753468,82.69780177724016,187.11308751281177,-82.06440005204031,41.62420776158788,-34.71950534897438,7.6711573921185305,-5.941185907100586,-3.138602101585807
Finger1,32.23113624516631,34.47717986992359,47.11068646104629,53.60043897255865,32.23113580223999,1.1230220794677734,1.1230220794677734,55.72100740989964,-0.78908721808574,-0.04864593533608286,34.209912331864246,-1.6726953606892039,2.7417644311024674,31.845879525562566,6.391800783408399,-0.45093470661757706,619.4493359551988,0.0,-150.2320727000041,397.05797455979734,-177.51964502437033,350.95713996885956,-108.3849066634688,-137.91382246350463,-331.34713425076006,288.1022017044387,-83.97638845017264,-246.79888290878435,-19.610005718099472,-140.64874971136317,33.058381805075,37.90090074959858,-619.4493359551988,0.0,150.2320727000041,-397.05797455979734,177.51964502437033,-350.95713996885956,108.3849066634688,137.91382246350463,331.34713425076006,-288.1022017044387,83.97638845017264,246.79888290878435,19.610005718099472,140.64874971136317,-33.058381805075,-37.90090074959858
Finger1,12.776240818553113,43.67943003338583,5.6453616692750686,50.25357091470547,11.529380767237399,3.455840254584473,0.646074614704581,50.22892981305516,-6.998444172100221,0.22795374607839491,43.077216552806846,1.3887659140942787,-0.003483259707387276,10.800498756132015,7.988996689879471,-0.435151936854139,655.6137200900857,0.0,-33.90190151695616,453.31913502521286,-103.13579467771115,416.8841055450441,-209.62810496276245,-59.943688096011144,-173.70311553213335,391.5560199206593,-223.72539193901258,-111.96921716076135,-128.64931657297473,-103.5235882198409,32.412103936289114,-57.632201629261886,-335.08766260685127,320.5260574832344,-192.34394029662846,-228.69673185849922,-122.121276841174,-216.84405576026677,101.49450928049737,-59.93196584154645,-56.46835731380801,-168.43519517983228,85.40661318988194,-28.911112133484778,41.97853583336254,1.011242640777013,3.8639638070976687,17.7077602984713,-655.6137200900857,0.0,33.90190151695616,-453.31913502521286,103.13579467771115,-416.8841055450441,209.62810496276245,59.943688096011144,173.70311553213335,-391.5560199206593,223.72539193901258,111.96921716076135,128.64931657297473,103.5235882198409,-32.412103936289114,57.632201629261886,335.08766260685127,-320.5260574832344,192.34394029662846,228.69673185849922,122.121276841174,216.84405576026677,-101.49450928049737,59.93196584154645,56.46835731380801,168.43519517983228,-85.40661318988194,28.911112133484778,-41.97853583336254,-1.011242640777013,-3.8639638070976687,-17.7077602984713
Finger1,8.402252734888629,49.36641272480831,4.669529412741525,52.32077160398895,6.798920890397312,9.178049259848478,-0.44757276493373155,52.1761548879923,-7.397414167707282,0.2390252669860926,48.649619309506136,2.515105748767951,-0.35512965782250205,9.120587144901265,8.676313402762204,-0.4689491453871195,667.6740974531617,0.0,-23.313284392315982,465.8581763176512,-103.02925030880384,424.73297075647594,-217.17024760381963,-62.37938203744094,-164.75050611965293,399.9744151304294,-238.95082333000045,-106.17232998758956,-131.61598580929848,-96.9310085496455,35.18026718327816,-58.5861838323695,-335.8064189831315,331.8676784700303,-209.2253711995734,-230.2459193616512,-128.96476841064083,-216.92506562091697,106.49331083308203,-62.99907506374819,-64.16799614729788,-159.5611455917898,84.16108421042053,-37.977969894900184,34.94437021347983,-0.9611093261792547,4.11404727271502,15.463641095130875,-667.6740974531617,0.0,23.313284392315982,-465.8581763176512,103.02925030880384,-424.73297075647594,217.17024760381963,62.37938203744094,164.75050611965293,-399.9744151304294,238.95082333000045,106.17232998758956,131.61598580929848,96.9310085496455,-35.18026718327816,58.5861838323695,335.8064189831315,-331.8676784700303,209.2253711995734,230.2459193616512,128.96476841064083,216.92506562091697,-106.49331083308203,62.99907506374819,64.16799614729788,159.5611455917898,-84.16108421042053,37.977969894900184,-34.94437021347983,0.9611093261792547,-4.11404727271502,-15.463641095130875
Finger1,6.055373575682981,46.21265957368903,5.079603670359282,49.081166789961344,4.469905604189023,6.151356645065135,-0.021624991749511935,50.96880704942074,-7.483819511066173,-0.42421170844635725,46.170687612550466,0.4186279039885221,-0.013780544722333588,-0.314291942250577,9.750545154827336,-0.4632235609028106,711.5627319322643,0.0,-6.326381809723824,446.15078891858985,-93.30955339009824,432.5786284555329,-125.55537647724715,-13.724292053782015,-178.6202586185504,427.5653177834904,-198.36439156524727,-74.8456333084837,-108.70799450836363,-77.069370064952,-15.02765421858811,-15.459789692160934,-359.19929726468695,352.3634346675774,-195.68287673945852,-198.15488448799258,-127.47076121857368,-204.61917421275007,36.75658756873085,-41.687933344312185,-68.36602051880345,-176.23444872959027,56.50353022523557,-30.827298354862734,24.266739370189768,-1.072982907637467,5.301749567261799,-4.693108828923036,-711.5627319322643,0.0,6.326381809723824,-446.15078891858985,93.30955339009824,-432.5786284555329,125.55537647724715,13.724292053782015,178.6202586185504,-427.5653177834904,198.36439156524727,74.8456333084837,108.70799450836363,77.069370064952,15.02765421858811,15.459789692160934,359.19929726468695,-352.3634346675774,195.68287673945852,198.15488448799258,127.47076121857368,204.61917421275007,-36.75658756873085,41.687933344312185,68.36602051880345,176.23444872959027,-56.50353022523557,30.827298354862734,-24.266739370189768,1.072982907637467,-5.301749567261799,4.693108828923036
Finger1,40.59027051505649,53.795543246011,10.207647385319406,51.81699383140694,40.44327831360815,3.8210960506463607,0.22621873707382179,53.57778147599831,-10.938424572573382,0.3753249429802956,53.27222404323186,1.8146124902417,-0.40380677408599297,39.00476997743962,7.154119282967997,-0.748145762799,584.3602550919077,0.0,-151.01828368778055,352.3814661870546,-178.95114289599599,340.3784946494876,-82.54877562116302,-119.16422058994755,-300.6309984561737,283.7292566357339,-71.20207890299532,-204.42176493816737,-39.74749619331391,-157.8233709625062,35.62346014359771,13.816082969969443,-584.3602550919077,0.0,151.01828368778055,-352.3814661870546,178.95114289599599,-340.3784946494876,82.54877562116302,119.16422058994755,300.6309984561737,-283.7292566357339,71.20207890299532,204.42176493816737,39.74749619331391,157.8233709625062,-35.62346014359771,-13.816082969969443
Finger1,40.9705074084602,43.79298930485843,41.64227111357278,47.7149374557823,40.970506845397516,1.411241054534912,1.411241054534912,47.776696275411325,0.7177125796012547,-0.5754281912608548,53.27222404323186,1.8146124902417,-0.40380677408599297,40.74031706723605,4.63652540782698,-0.7581098331439051,313.56125862632854,0.0,-116.65415837105334,185.45562588959785,-177.65757352945167,135.90368509687687,-7.798052360146215,-117.71100198031185,-313.56125862632854,0.0,116.65415837105334,-185.45562588959785,177.65757352945167,-135.90368509687687,7.798052360146215,117.71100198031185
Finger1,3.4752600590566045,47.37792614134495,7.618400512709066,49.62218750195365,1.1133201916023268,8.634242640471086,-0.12102675030904209,51.435538672661096,-5.770858711505866,-0.13032495180854653,45.81419169187569,3.4041467551909363,-0.34917480205248097,0.6587664497426431,10.335652516036873,-0.48965150981049366,780.7924441228968,0.0,-15.37110384709873,510.07866472684196,-96.90374156910946,492.0893360187898,-188.3922081306537,-35.0214176478304,-201.6795637470412,468.9978744738599,-240.12054205787456,-106.99643053793872,-147.7257098270631,-101.6690597863217,17.451239954901258,-40.866818569305764,-393.17923468397987,387.6132094389169,-225.50705568016105,-237.8991609510359,-155.35297783684442,-234.74448374242235,74.32539022659746,-60.02219898454776,-75.81863978988005,-198.32822026730193,82.29534872301936,-35.52412047616498,40.58264697054649,-8.59277481974874,8.001371041390051,7.129496789442869,-780.7924441228968,0.0,15.37110384709873,-510.07866472684196,96.90374156910946,-492.0893360187898,188.3922081306537,35.0214176478304,201.6795637470412,-468.9978744738599,240.12054205787456,106.99643053793872,147.7257098270631,101.6690597863217,-17.451239954901258,40.866818569305764,393.17923468397987,-387.6132094389169,225.50705568016105,237.8991609510359,155.35297783684442,234.74448374242235,-74.32539022659746,60.02219898454776,75.81863978988005,198.32822026730193,-82.29534872301936,35.52412047616498,-40.58264697054649,8.59277481974874,-8.001371041390051,-7.129496789442869
Finger1,4.0106076257390315,51.98955616740233,8.908293513399778,55.53610580596653,3.480112587150188,5.915549240664916,0.18396680017341538,56.02994514457143,-4.899076388648879,-0.27200253803260566,50.900649258119245,2.8442061730102637,-0.3146076217245195,-1.5388087648682927,10.839570712323464,-0.49502297061568434,831.0659859957017,0.0,-13.916333447747,534.6564583108207,-107.66217284167745,520.9987823850357,-182.12706742105027,-35.49956176447545,-209.23295603685517,502.95053605885215,-249.16781976405298,-105.22277456542955,-154.3649135302925,-107.3095729693897,12.179305000550656,-33.89493093569271,-414.0454442879761,417.02054170772556,-241.03286223176758,-247.5717857326982,-166.17598717828145,-251.49229076228903,73.32683967786126,-56.7413746741495,-88.90509177087606,-211.332477995343,85.39478496857052,-40.433807751878675,46.74570535215701,-7.094055115182201,3.757022812537521,4.075077823770193,-831.0659859957017,0.0,13.916333447747,-534.6564583108207,107.66217284167745,-520.9987823850357,182.12706742105027,35.49956176447545,209.23295603685517,-502.95053605885215,249.16781976405298,105.22277456542955,154.3649135302925,107.3095729693897,-12.179305000550656,33.89493093569271,414.0454442879761,-417.02054170772556,241.03286223176758,247.5717857326982,166.17598717828145,251.49229076228903,-73.32683967786126,56.7413746741495,88.90509177087606,211.332477995343,-85.39478496857052,40.433807751878675,-46.74570535215701,7.094055115182201,-3.757022812537521,-4.075077823770193
Finger1,2.3071560154924153,43.86677005267409,11.217670906397352,45.781867530724625,1.1361762590092326,5.305877696188361,0.11261316469390437,45.90019124656895,-4.975605275253329,-0.16855948894800576,44.12415054892273,0.49633609578904725,-0.03335185689531528,-3.183005363097692,9.36057466650945,-0.43457219129004,651.6553783076903,0.0,7.897621393489686,421.66716485609857,-79.80008704085489,405.4397083625282,-140.98235302197895,-13.76852984210408,-167.16652084590555,388.9638157472648,-202.50168968679333,-73.78947576478559,-110.33218806145983,-79.27394025954175,-2.00900117719649,-22.10780886799661,-330.2225002887552,321.43287801893507,-192.19562590286293,-184.39478152824955,-124.62221483736215,-194.91644062715278,45.1510203028179,-45.302390158420465,-58.74131545850963,-160.29691656468523,54.740691067038576,-34.04221953065981,27.10147221761206,0.6820225219583165,3.73688671871175,-12.16441539422097,-651.6553783076903,0.0,-7.897621393489686,-421.66716485609857,79.80008704085489,-405.4397083625282,140.98235302197895,13.76852984210408,167.16652084590555,-388.9638157472648,202.50168968679333,73.78947576478559,110.33218806145983,79.27394025954175,2.00900117719649,22.10780886799661,330.2225002887552,-321.43287801893507,192.19562590286293,184.39478152824955,124.62221483736215,194.91644062715278,-45.1510203028179,45.302390158420465,58.74131545850963,160.29691656468523,-54.740691067038576,34.04221953065981,-27.10147221761206,-0.6820225219583165,-3.73688671871175,12.16441539422097
Finger1,5.318660098171825,6.25468462927537,5.770754002037532,6.25468462927537,5.318660025746628,0.46801233291625977,0.468012273311615,6.2546845422407635,-0.24196523427963257,-0.24196523427963257,44.12415054892273,0.49633609578904725,-0.03335185689531528,5.318660073225152,1.646002061764662,-0.7099775457342616,17.344098729484728,0.0,-11.089414100209357,6.25468462927537,-17.344098729484728,0.0,11.089414100209357,-6.25468462927537
Finger1,42.901080479030085,45.09266254204921,37.17953586125346,39.58034233109809,42.32155736138728,4.049382728708622,-0.5908665286695793,39.58034178111131,-1.2004027366638184,-1.2004027366638184,44.12415054892273,0.49633609578904725,-0.03335185689531528,42.39579473830577,4.023094239599715,-0.5986008938973981,404.27896333922695,0.0,-87.52800009437541,237.41564506546695,-132.8968239638604,221.06288028198676,-42.56781400070672,-56.313477101208036,-222.85606973456706,181.42289360465986,-39.90052238563973,-121.21597012720835,1.7931894525802932,-95.5957981325859,-9.994415751233515,-5.213924001446571,-404.27896333922695,0.0,87.52800009437541,-237.41564506546695,132.8968239638604,-221.06288028198676,42.56781400070672,56.313477101208036,222.85606973456706,-181.42289360465986,39.90052238563973,121.21597012720835,-1.7931894525802932,95.5957981325859,9.994415751233515,5.213924001446571
Finger1,5.41626951833177,54.6355865669456,45.59659757562295,50.01637027936477,2.825337594801937,9.508937162284838,-0.08323798720136466,50.016369582734946,-2.209886074066162,-2.209886074066162,54.635586066781954,2.30960874391144,-2.309608313036051,-0.7800461405339547,14.750454906980565,-1.0357743143023512,360.77432982481116,0.0,-24.536232891814347,210.69711832494426,-113.10319143539425,207.40040500122234,-29.73624758540801,-26.60038869788167,-171.71239361311194,189.06193621169925,-85.71801068198528,-88.93630657904566,-35.68801138811037,-88.81765350562489,5.867810437624772,-15.62241953784213,-360.77432982481116,0.0,24.536232891814347,-210.69711832494426,113.10319143539425,-207.40040500122234,29.73624758540801,26.60038869788167,171.71239361311194,-189.06193621169925,85.71801068198528,88.93630657904566,35.68801138811037,88.81765350562489,-5.867810437624772,15.62241953784213
Finger1,8.904492719376403,51.39246541653135,45.25563602479705,49.45547930195856,7.499870394088276,7.456533280506733,-0.1472601226275856,49.455478613341185,-2.099921703338623,-2.099921226501465,51.39246492197664,0.9684937361664652,-0.9684932706664995,4.972951070075794,10.486632149747749,-0.6177122931060097,393.6479972108715,0.0,-77.86289252478943,224.78358577168137,-114.10047008578144,243.6954510587493,-41.54731810386771,-64.63513690003474,-206.09496498360215,187.55303222726937,-39.00873631998239,-119.85969913251857,-37.600486075147174,-130.15636537967544,35.94466719697848,24.87573796890852,-393.6479972108715,0.0,77.86289252478943,-224.78358577168137,114.10047008578144,-243.6954510587493,41.54731810386771,64.63513690003474,206.09496498360215,-187.55303222726937,39.00873631998239,119.85969913251857,37.600486075147174,130.15636537967544,-35.94466719697848,-24.87573796890852
Finger1,60.8209853378429,60.902116437196916,51.33173387046751,54.63517426592103,60.82098471890518,-0.6072290967980507,0.32389747680798564,54.63517350675295,-1.6517200469970703,-1.6517200469970703,51.39246492197664,0.9684937361664652,-0.9684932706664995,60.811496734130486,1.1323656507142346,-0.9051159263649851,288.22766299496,0.0,-116.32640200605282,142.34160366442237,-173.05483564550732,115.17282734945266,30.71323198108496,-65.07579923493932,-288.22766299496,0.0,116.32640200605282,-142.34160366442237,173.05483564550732,-115.17282734945266,-30.71323198108496,65.07579923493932
Finger1,7.783354507515741,56.52299031504957,5.11943459091279,52.656242801973015,6.827402270007099,6.377864291994285,0.12761152799472342,52.32015559663775,-5.660907819070218,0.04699345356253737,56.01440178409584,1.5322429549624417,-0.5285306630942301,6.29433496534665,9.618202555711662,-0.5054364699077061,701.4009023995557,0.0,-20.936697580375622,487.8351604553612,-98.95456563898932,437.63592931775366,-218.44532897305737,-48.40168080806774,-178.77980734104932,422.6166185090953,-247.6359624331173,-110.96679541205556,-124.73108419904506,-95.22504510295563,20.806775498108685,-52.25229739383029,-346.24260058239355,355.15830181716217,-224.2954740911969,-233.69723604053036,-138.18310742309964,-213.89177652599395,94.88105775857093,-69.35029402111311,-76.37401792670175,-175.50075655761862,91.3938896491564,-39.358009691936076,38.28407497095844,-2.9217326512134605,2.369959491064016,12.596178572380456,-701.4009023995557,0.0,20.936697580375622,-487.8351604553612,98.95456563898932,-437.63592931775366,218.44532897305737,48.40168080806774,178.77980734104932,-422.6166185090953,247.6359624331173,110.96679541205556,124.73108419904506,95.22504510295563,-20.806775498108685,52.25229739383029,346.24260058239355,-355.15830181716217,224.2954740911969,233.69723604053036,138.18310742309964,213.89177652599395,-94.88105775857093,69.35029402111311,76.37401792670175,175.50075655761862,-91.3938896491564,39.358009691936076,-38.28407497095844,2.9217326512134605,-2.369959491064016,-12.596178572380456
Finger1,6.8047297538661615,50.56629084549574,2.7584138068494624,47.296228937720805,5.120740231358525,7.740557661440505,-0.24939317699077534,48.528172702623834,-5.178860163365897,-0.01551202923156847,50.278400026499696,2.176389529881476,-1.0248277027157258,5.183033277857106,8.936902867119343,-0.47448807359505096,623.812529764089,0.0,-2.7995917103327805,433.86418999533714,-85.81205460198755,391.10512645877725,-195.49154762596277,-35.875997285903864,-160.85682463175772,373.36402835369466,-222.8591757527328,-88.64533011018597,-113.64504240921225,-81.97329512138084,14.597523353345448,-51.60070555672251,-315.4992227942321,308.313306969857,-201.65559458194153,-205.00423987651357,-121.13753401974253,-194.27370697635732,84.8351876928531,-64.9572272991038,-57.86480555946255,-156.0647983680438,77.48110964377196,-39.29019580669434,31.708868312536918,-5.242619844909882,10.40599420447139,11.753015002432218,-623.812529764089,0.0,2.7995917103327805,-433.86418999533714,85.81205460198755,-391.10512645877725,195.49154762596277,35.875997285903864,160.85682463175772,-373.36402835369466,222.8591757527328,88.64533011018597,113.64504240921225,81.97329512138084,-14.597523353345448,51.60070555672251,315.4992227942321,-308.313306969857,201.65559458194153,205.00423987651357,121.13753401974253,194.27370697635732,-84.8351876928531,64.9572272991038,57.86480555946255,156.0647983680438,-77.48110964377196,39.29019580669434,-31.708868312536918,5.242619844909882,-10.40599420447139,-11.753015002432218
Finger1,48.36155762440875,52.19441864890958,53.95272648891162,56.39161725337969,48.361557163847294,1.5911521766083752,0.1626392847470015,56.3916167075993,0.8621195204119658,-1.040782312499175,50.278400026499696,2.176389529881476,-1.0248277027157258,47.53595720107097,4.039616362031836,-0.5196612090562098,317.22862261417106,0.0,-138.28685824520323,165.65655525042413,-156.76893021648044,160.45969239769062,-8.887625033943692,-85.90676532654196,-317.22862261417106,0.0,138.28685824520323,-165.65655525042413,156.76893021648044,-160.45969239769062,8.887625033943692,85.90676532654196
