Klasse,minimumSteigungWert,maximumSteigungWert,minimumSenkungWert,maximumSenkungWert,steigungA,steigungB,steigungC,senkungA,senkungB,senkungC,mittelA,mittelB,mittelC,gesamtA,gesamtB,gesamtC,fftRealTeil,fftImgTeil
Finger2,446.61974864158253,523.3150061905035,3.317199306083774,523.3150061905035,446.6197425576375,38.347633361816406,38.347633361816406,548.0709667476731,-105.42366543068817,-10.889359247758051,0.0,0.0,0.0,481.61716213499005,31.846524854108225,-28.388067169394446,1806.0571561210359,0.0,-560.3573826475377,1090.927751963193,-906.514727215002,899.5424289060337,-184.41302474819088,-563.5530564699732,-1806.0571561210359,0.0,560.3573826475377,-1090.927751963193,906.514727215002,-899.5424289060337,184.41302474819088,563.5530564699732
Finger2,422.67590261963437,446.61974864158253,1362.8034299692138,1422.6528598588231,424.08654504580545,2.3867484512120427,0.3946366309626228,1425.3696030793817,76.23324126701118,-32.66473923095964,439.2830324355782,-38.45071962989459,47.43560673097659,318.2822110484303,40.05577425708907,4.698572030874459,11949.156908542125,0.0,-3333.4911350703987,7951.082563286684,-3955.3407227099547,6772.293292645383,-2684.1537226936034,-3656.501275595619,-5731.830353476714,6217.3265550654105,-1975.1684459033395,-4474.293085006969,-1040.46293916867,-2975.4694186481106,1040.7296259743098,336.6323367090613,-11949.156908542125,0.0,3333.4911350703987,-7951.082563286684,3955.3407227099547,-6772.293292645383,2684.1537226936034,3656.501275595619,5731.830353476714,-6217.3265550654105,1975.1684459033395,4474.293085006969,1040.46293916867,2975.4694186481106,-1040.7296259743098,-336.6323367090613
Finger2,78.27512258358104,117.91950518690908,79.18214566831071,90.91174655366346,74.48399964324744,5.6427285004984356,-0.17124464513035065,90.91174554819187,-6.343780791009749,0.23949041730543286,117.99428617107475,4.077529254073852,-4.376656606744007,69.3598838830909,7.750433305557124,-0.29755783233036226,2601.0937110192185,0.0,-578.7746817003772,1625.1282884604627,-406.00922971559606,1591.5785340277557,-457.10641949108646,-381.0113237651291,-704.8938921932667,1526.2046127216845,-606.9307904670321,-645.9975348819477,-405.90536642556,-328.88111472058836,96.27300590704243,22.535478526687058,-1339.231127780697,1261.8625832385214,-435.2540170947865,-1037.6594161071762,-430.1883026542748,-775.5109685399245,267.73692381512154,29.760511928267306,-186.97348494098742,-633.528810788873,274.670967435922,73.70573764466837,64.00756237596927,-20.736053068222304,-13.105121408066054,-70.9917778796463,-2601.0937110192185,0.0,578.7746817003772,-1625.1282884604627,406.00922971559606,-1591.5785340277557,457.10641949108646,381.0113237651291,704.8938921932667,-1526.2046127216845,606.9307904670321,645.9975348819477,405.90536642556,328.88111472058836,-96.27300590704243,-22.535478526687058,1339.231127780697,-1261.8625832385214,435.2540170947865,1037.6594161071762,430.1883026542748,775.5109685399245,-267.73692381512154,-29.760511928267306,186.97348494098742,633.528810788873,-274.670967435922,-73.70573764466837,-64.00756237596927,20.736053068222304,13.105121408066054,70.9917778796463
Finger2,49.78506663397937,56.1978667607144,89.21222795543711,111.1739473048825,49.7770921668282,3.809949780151328,-0.560033645782994,113.4518421403643,1.452823978426295,-0.2409711812316182,57.08645663397374,-1.6970822163306138,1.2988559464000957,33.733947276191316,9.384144228991829,-0.28535394400296177,2350.3489633242853,0.0,-389.3014900490323,1496.4717066536919,-398.7137349597268,1410.2706796354364,-430.1974195994113,-326.3931065184712,-660.0131312950102,1390.6999498506057,-608.4743305649247,-544.5735672244341,-309.5608093115638,-326.27919407533926,115.68108448429683,37.79389208534833,-1163.5909604481694,1186.758002876116,-504.54624674980664,-835.1511813348116,-413.38560152090747,-720.5885952372507,254.60207125352503,-42.045888482551476,-227.10898940243624,-599.4928076258402,263.4011973652284,-17.53154154356821,109.38284335500413,1.9841956834849839,-18.196256758538617,2.2080611938458503,-2350.3489633242853,0.0,389.3014900490323,-1496.4717066536919,398.7137349597268,-1410.2706796354364,430.1974195994113,326.3931065184712,660.0131312950102,-1390.6999498506057,608.4743305649247,544.5735672244341,309.5608093115638,326.27919407533926,-115.68108448429683,-37.79389208534833,1163.5909604481694,-1186.758002876116,504.54624674980664,835.1511813348116,413.38560152090747,720.5885952372507,-254.60207125352503,42.045888482551476,227.10898940243624,599.4928076258402,-263.4011973652284,17.53154154356821,-109.38284335500413,-1.9841956834849839,18.196256758538617,-2.2080611938458503
Finger2,30.987006282817664,32.09455678293636,19.31273701370256,19.70171541745925,30.987006030910436,3.391271005721819,-1.418747808841914,19.70171514464282,-0.1944890022277832,-0.1944890022277832,32.09455658591922,6.196420575496916,-6.19642056437246,32.2761902328796,0.05854798664577743,-0.606739216770837,161.16470459732972,0.0,-69.18883174659312,87.51859470730044,-82.78327848321328,78.38142611411644,-4.735316224087164,-50.59466682925256,-161.16470459732972,0.0,69.18883174659312,-87.51859470730044,82.78327848321328,-78.38142611411644,4.735316224087164,50.59466682925256
Finger2,22.461337503878415,23.262912995202754,20.798767758257156,21.28448859912029,22.46133719431254,0.4007878303527832,0.4007878303527832,21.284488395216975,0.47625119018471196,-0.3595557532875375,32.09455658591922,6.196420575496916,-6.19642056437246,22.77727401956672,-0.3150113948104831,-0.05091885586026734,109.2086907016933,0.0,-44.576546568810656,52.86677435056626,-64.54459386125586,44.66409684043744,11.677819510689602,-22.60092990579538,-109.2086907016933,0.0,44.576546568810656,-52.86677435056626,64.54459386125586,-44.66409684043744,-11.677819510689602,22.60092990579538
Finger2,38.99357706048001,47.77378854389523,3.1883457264515647,46.170047559321894,38.99357673783918,4.472581649764379,-0.04123786772595395,46.56363760896336,-10.457166179029748,0.630756157700433,47.1072600328622,2.3023730526816735,-0.38697901809889146,42.36331440236259,3.354882726980968,-0.42912909657568044,548.2788783453075,0.0,-128.194331789694,331.41051413739785,-163.99208305299248,321.19949136777416,-79.64907586553778,-100.48760906459879,-283.24187184852747,265.03700649678007,-74.98365338364228,-189.55158229921972,-37.95761951924666,-148.3302648215008,33.268418733709225,6.450535648613965,-548.2788783453075,0.0,128.194331789694,-331.41051413739785,163.99208305299248,-321.19949136777416,79.64907586553778,100.48760906459879,283.24187184852747,-265.03700649678007,74.98365338364228,189.55158229921972,37.95761951924666,148.3302648215008,-33.268418733709225,-6.450535648613965
Finger2,28.806857377742734,29.173637681331627,17.765664561073905,17.84958168386732,28.651409847709786,1.386951769702648,-0.29764324756520466,17.849581437013732,-0.04195833206176758,-0.04195833206176758,29.15105268742944,2.015323118513578,-1.924983957428509,29.374110540257618,0.8848317629730218,-0.32836008065451594,229.23548216956743,0.0,-66.46566313327905,134.5415290361389,-80.32093471916102,123.11493281259338,-22.526741845007585,-45.07280893032781,-125.53082878129067,103.70465338827677,-16.494515953325035,-77.17207973907362,2.415895968697285,-54.359444260155165,-2.568049826540882,2.3752273601729996,-229.23548216956743,0.0,66.46566313327905,-134.5415290361389,80.32093471916102,-123.11493281259338,22.526741845007585,45.07280893032781,125.53082878129067,-103.70465338827677,16.494515953325035,77.17207973907362,-2.415895968697285,54.359444260155165,2.568049826540882,-2.3752273601729996
Finger2,38.09542980138471,41.45883720619919,3.840179266365525,44.641787582114496,38.09542927870353,1.6817042827606201,1.681704044342041,46.279267676667615,-7.973529464424388,-0.17795051069276013,41.3590763553178,0.034817965571960485,0.3642241962302535,37.98832724070678,5.176020468665996,-1.0450644580604909,314.9608233296801,0.0,-81.17083279973585,199.89545886883715,-107.9136631099611,179.91278718581208,-59.260089132569234,-75.5017351057395,-167.40094450763388,147.55987882204624,-46.99405293446871,-124.42822689007,-12.511842678178212,-91.65711108168318,29.475554031844666,-0.7326045698836054,-314.9608233296801,0.0,81.17083279973585,-199.89545886883715,107.9136631099611,-179.91278718581208,59.260089132569234,75.5017351057395,167.40094450763388,-147.55987882204624,46.99405293446871,124.42822689007,12.511842678178212,91.65711108168318,-29.475554031844666,0.7326045698836054
Finger2,33.38151137336236,36.22194896487633,5.3153250192430255,42.412176144621284,33.38151091523204,1.4202191829681396,1.4202189445495605,43.98010725526751,-11.655311041878207,0.7126266157890235,34.666721322425786,1.7064467022351266,-0.05952161118930732,28.65574231518673,5.940576935638987,-0.5131416722096516,535.0654360662554,0.0,-135.68386026734726,325.78693095810115,-155.12882330641247,313.31175255562914,-79.11186998778936,-107.79483622496137,-273.92451428628715,261.1409217799682,-69.17787307598957,-191.53542032253176,-39.38723826934199,-138.51878085954104,33.13458627793558,17.474441163373882,-535.0654360662554,0.0,135.68386026734726,-325.78693095810115,155.12882330641247,-313.31175255562914,79.11186998778936,107.79483622496137,273.92451428628715,-261.1409217799682,69.17787307598957,191.53542032253176,39.38723826934199,138.51878085954104,-33.13458627793558,-17.474441163373882
Finger2,22.72675296536279,35.560127061015294,6.848887016062577,35.731570826382324,22.830441959332376,3.3731067378799366,0.2785195238858762,36.65903355001182,-9.32529060703088,0.4205170073889555,35.56012670369961,-0.08572134113808261,0.08572170102530663,21.52552618341764,7.759249420455035,-1.0829532287095205,255.77981578769402,0.0,-47.54257852765174,166.28267513474358,-81.83201509970607,147.92679494081585,-54.34576481454066,-51.50235793206538,-131.64973303376604,124.130082753928,-51.82317810540233,-93.47780177280515,-16.2770619070498,-70.48942541847211,22.112857792481638,-7.553867115462282,-255.77981578769402,0.0,47.54257852765174,-166.28267513474358,81.83201509970607,-147.92679494081585,54.34576481454066,51.50235793206538,131.64973303376604,-124.130082753928,51.82317810540233,93.47780177280515,16.2770619070498,70.48942541847211,-22.112857792481638,7.553867115462282
Finger2,38.04639705779584,39.946790625904015,29.92501372502808,31.48692254613776,37.94371572048399,2.1852488725216404,-0.29324423766034613,31.486922109021894,-0.780954122543335,-0.780954122543335,39.9467903110348,4.229934237241309,-4.229934049270128,37.596304630725285,2.7878664139486773,-0.41471827669675676,383.2223264523295,0.0,-100.17321138107508,217.64837796866834,-135.98234136479465,215.5946796023324,-23.997955822193788,-73.9222200441432,-192.8198130066308,190.40251344569876,-47.7872228049836,-129.45990706635453,-22.77486659570161,-105.08207073799588,18.555471303860294,6.7965601336237285,-383.2223264523295,0.0,100.17321138107508,-217.64837796866834,135.98234136479465,-215.5946796023324,23.997955822193788,73.9222200441432,192.8198130066308,-190.40251344569876,47.7872228049836,129.45990706635453,22.77486659570161,105.08207073799588,-18.555471303860294,-6.7965601336237285
Finger2,9.717028113594877,30.224430838166153,4.177943368420723,31.84348982059907,9.603791621437992,3.5731656194650157,0.11957262218426479,32.491727625031274,-3.565619582257554,0.06942107619810134,30.09254272009227,0.7029970515839921,-0.07332347052535937,11.415042057902141,4.328017113201739,-0.24911401969669478,433.64224057294746,0.0,-44.89803442445392,295.5865055416721,-71.04069960301666,273.91953624822804,-128.9170701858822,-51.041194707854274,-117.43363748642037,259.1054966774319,-140.5172361771331,-87.56616368536304,-82.09580081705599,-69.96407080098025,24.947161288543963,-29.681851824299596,-220.1651377567121,213.47710281623532,-115.26517828638804,-159.65379099708,-80.88115037083094,-144.2597434435757,68.50234507131321,-30.094433131116034,-38.9403589207198,-113.57727902573647,58.95121266221988,-13.88307300264978,29.879089593988965,0.22511389049545016,0.3342339783203663,9.75507522607936,-433.64224057294746,0.0,44.89803442445392,-295.5865055416721,71.04069960301666,-273.91953624822804,128.9170701858822,51.041194707854274,117.43363748642037,-259.1054966774319,140.5172361771331,87.56616368536304,82.09580081705599,69.96407080098025,-24.947161288543963,29.681851824299596,220.1651377567121,-213.47710281623532,115.26517828638804,159.65379099708,80.88115037083094,144.2597434435757,-68.50234507131321,30.094433131116034,38.9403589207198,113.57727902573647,-58.95121266221988,13.88307300264978,-29.879089593988965,-0.22511389049545016,-0.3342339783203663,-9.75507522607936
Finger2,47.07101112281784,57.05424890962583,15.72363568726188,61.04187497879826,47.07101071635506,4.384364953128056,0.30362707685463874,62.26929388259069,-7.615585428094988,-0.3821951343890575,56.428136554676655,2.1488946416013732,-0.2133110001259979,45.44050680194445,8.423719915433907,-1.0314054516704925,579.3604379511038,0.0,-140.13111024460005,345.8999835569359,-167.41600892462873,342.17833415771963,-81.19789553189499,-100.19135011610568,-296.2647623321104,283.09567561899337,-77.14336559838048,-196.26306173349576,-45.91357182560921,-155.15017099840287,32.25229745463693,3.0991263186886044,-579.3604379511038,0.0,140.13111024460005,-345.8999835569359,167.41600892462873,-342.17833415771963,81.19789553189499,100.19135011610568,296.2647623321104,-283.09567561899337,77.14336559838048,196.26306173349576,45.91357182560921,155.15017099840287,-32.25229745463693,-3.0991263186886044
Finger2,36.92257379354857,38.58162676823979,52.09796717818526,52.92657828034758,36.81526254691471,2.5081490597913785,-0.6278635598673645,52.92657754770941,-0.4143047332763672,-0.4143047332763672,38.680779612727235,-2.952693167332882,2.5560805423613715,36.86208364430962,0.5972438088139711,0.26867334764228445,349.233764839808,0.0,-76.57092720592941,217.75502684137143,-172.19344685292492,177.04031798688305,-45.561579988446496,-89.51471525185192,-349.233764839808,0.0,76.57092720592941,-217.75502684137143,172.19344685292492,-177.04031798688305,45.561579988446496,89.51471525185192
Finger2,2.214460973087997,46.44877352417861,4.697066302011601,45.79925797896569,1.5532661992153578,2.976144248250165,0.5283466506157133,46.88228660571439,-8.723877050383322,0.020960427124244063,45.433109768536326,1.9505663980855843,-0.19795203604709144,-6.8449470631477425,10.489583312919734,-0.4697208115050988,717.2593029333733,0.0,3.4358564789695443,454.31918925993665,-93.60679216267701,438.96206141981907,-136.39481708146002,-11.105634485878827,-179.10654883876407,433.10617487573927,-207.79807787613353,-74.19045904160107,-115.13900627216366,-81.58993251555023,-12.919390624280489,-20.962278240375383,-356.42268764693347,360.83661528643984,-209.32670522367397,-197.5798768836837,-135.48191356616235,-206.87680902258268,41.55564161865005,-47.55549632175723,-76.6834872288058,-178.59617580442307,62.65201294701114,-33.87810210914563,29.77779583225763,-3.5097655565831616,2.991497079808825,-3.1726558106762432,-717.2593029333733,0.0,-3.4358564789695443,-454.31918925993665,93.60679216267701,-438.96206141981907,136.39481708146002,11.105634485878827,179.10654883876407,-433.10617487573927,207.79807787613353,74.19045904160107,115.13900627216366,81.58993251555023,12.919390624280489,20.962278240375383,356.42268764693347,-360.83661528643984,209.32670522367397,197.5798768836837,135.48191356616235,206.87680902258268,-41.55564161865005,47.55549632175723,76.6834872288058,178.59617580442307,-62.65201294701114,33.87810210914563,-29.77779583225763,3.5097655565831616,-2.991497079808825,3.1726558106762432
Finger2,35.149854527156705,39.92535619868283,35.37172305814769,36.72667477723911,35.20140197710546,1.97431951725639,-0.1389502335383952,36.7475556863033,-1.0386405184671617,0.191023070463487,45.433109768536326,1.9505663980855843,-0.19795203604709144,35.84747342119121,1.4608177940014855,-0.2395982919802364,294.13892508281225,0.0,-70.36114110394978,178.78208230173186,-145.68784911448216,148.4510759683301,-33.0942331872497,-72.29593160964032,-294.13892508281225,0.0,70.36114110394978,-178.78208230173186,145.68784911448216,-148.4510759683301,33.0942331872497,72.29593160964032
Finger2,16.685804728818624,18.466503413123224,3.842697169762412,18.896150184704492,16.68580450024578,0.8903495073318481,0.8903495073318481,18.853101206425105,-0.7720773877895937,-1.4056803431220395,45.433109768536326,1.9505663980855843,-0.19795203604709144,16.42390089828144,3.725242098947973,-1.2394420547712706,86.25272402572726,0.0,-32.57623496923421,46.37106538508411,-47.3973263242997,38.85539770142756,1.0262609392155824,-22.9712090143435,-86.25272402572726,0.0,32.57623496923421,-46.37106538508411,47.3973263242997,-38.85539770142756,-1.0262609392155824,22.9712090143435
Finger2,3.409228107911873,43.15221621781003,4.916727688782121,41.78668611737937,3.199406513856559,3.9500791466173837,0.07008297963373522,43.560218621852414,-7.677821477437831,-0.11360142506369186,42.321089269258636,2.139150258632526,-0.2986269663374159,-4.74737663833352,8.927764418180743,-0.39746600516758335,641.8613513990729,0.0,-2.239102097468148,395.0473385369468,-103.0652350024,393.84712357108924,-101.17141117921938,-19.50328536609123,-160.49781192439025,390.2519799917501,-180.77175304906592,-68.13387696618656,-108.23726310987989,-86.48890118899111,-6.053453085419264,-16.23130887379451,-318.8846515471836,322.9766998518893,-180.60068425783285,-174.74573060947765,-114.78360620408164,-196.77812199164885,34.43833016544751,-31.759654479898032,-71.36732844456654,-165.35909109966065,59.14266489230393,-27.950818326151335,36.34832681738095,0.6563432460735044,-2.168474159438234,-2.4463378609009325,-641.8613513990729,0.0,2.239102097468148,-395.0473385369468,103.0652350024,-393.84712357108924,101.17141117921938,19.50328536609123,160.49781192439025,-390.2519799917501,180.77175304906592,68.13387696618656,108.23726310987989,86.48890118899111,6.053453085419264,16.23130887379451,318.8846515471836,-322.9766998518893,180.60068425783285,174.74573060947765,114.78360620408164,196.77812199164885,-34.43833016544751,31.759654479898032,71.36732844456654,165.35909109966065,-59.14266489230393,27.950818326151335,-36.34832681738095,-0.6563432460735044,2.168474159438234,2.4463378609009325
Finger2,13.596424046091869,14.948198089041089,13.508759817146641,14.948198089041089,13.596423859722666,0.6758871078491211,0.6758871078491211,14.948197880702685,-0.7197189331054688,-0.7197190523147583,42.321089269258636,2.139150258632526,-0.2986269663374159,13.596423958316372,2.7473801838694953,-1.3956061220484628,42.053381952279594,0.0,-27.10518386323851,14.948198089041089,-42.053381952279594,0.0,27.10518386323851,-14.948198089041089
Finger2,32.05741630525038,43.849016556428936,21.943727398032724,43.849016556428936,32.05741611836844,8.481811483739762,-1.2930056201363413,43.849016114226984,-1.7767672320701422,-4.587938559499548,42.321089269258636,2.139150258632526,-0.2986269663374159,31.253099430733045,13.922864864464259,-4.030448445119546,174.58069275725165,0.0,-55.24700350721566,98.10569640949396,-97.85016025971204,76.73053249753963,-0.25553614978191774,-45.09487636036149,-174.58069275725165,0.0,55.24700350721566,-98.10569640949396,97.85016025971204,-76.73053249753963,0.25553614978191774,45.09487636036149
Finger2,86.67678982907259,90.61289573569582,29.93250121084422,30.96317068588636,85.32139576024014,4.782355708101932,-0.7763943956425976,30.96317025663557,-0.5153343677520752,-0.5153343677520752,90.46114234739545,4.676898345033351,-4.839732494481552,87.61959625384884,4.585259153127311,-1.3448458351804362,699.2515622789842,0.0,-209.96720328841477,422.9579676468567,-246.51810826600956,392.49672298574933,-90.61410176685996,-169.9513834988761,-362.9447558543625,336.30680642462175,-85.16333030047156,-272.165739822242,-29.551967131386846,-192.95715161906253,50.924128561311704,11.900614549607255,-699.2515622789842,0.0,209.96720328841477,-422.9579676468567,246.51810826600956,-392.49672298574933,90.61410176685996,169.9513834988761,362.9447558543625,-336.30680642462175,85.16333030047156,272.165739822242,29.551967131386846,192.95715161906253,-50.924128561311704,-11.900614549607255
Finger2,56.16314671779392,61.74361561754166,30.260517646421775,61.65412794262491,56.16314594794927,2.7902350425720215,2.7902350425720215,61.92069812050721,-5.365255215887402,-0.00545837321686804,60.35924859741374,3.1943569316891285,-0.4452915122137,58.05756244314301,3.873989404541078,-0.485044023300123,768.0878555150159,0.0,-194.63019138275712,480.26901217200196,-243.93314638039567,443.844148813389,-133.18527647852648,-175.97856215759822,-389.05723770385805,379.03061781115787,-111.67657252276123,-275.5188173131485,-54.78691110953088,-206.53396604012283,56.0459195290365,9.772013685536436,-768.0878555150159,0.0,194.63019138275712,-480.26901217200196,243.93314638039567,-443.844148813389,133.18527647852648,175.97856215759822,389.05723770385805,-379.03061781115787,111.67657252276123,275.5188173131485,54.78691110953088,206.53396604012283,-56.0459195290365,-9.772013685536436
Finger2,11.024593253209106,14.732138449507573,5.466042635565751,14.675237710702575,11.024593143273705,0.2825690904216742,0.7856017807188209,14.675237523620225,-2.9623695968337813,-0.8211139262733056,60.35924859741374,3.1943569316891285,-0.4452915122137,10.265086947239382,4.294284338048669,-1.0385864881117417,68.88253001067147,0.0,-23.95533835210903,37.52504980045527,-36.64848565219358,32.234044358477895,-0.8765641482616928,-16.7711295989306,-68.88253001067147,0.0,23.95533835210903,-37.52504980045527,36.64848565219358,-32.234044358477895,0.8765641482616928,16.7711295989306
Finger2,60.8379993699112,67.8541356960228,107.96278906454205,109.09617010614494,60.83799883350403,4.613883056139684,-0.5529073059816483,109.09616859665275,-0.5666904449462891,-0.5666894912719727,67.73449293506144,-2.349400782282487,3.152191177636041,57.934725699179126,6.986369366128429,0.13064712913727305,677.3867465035987,0.0,-135.9020012875875,425.59361251834076,-325.75200995229346,351.6347365513052,-99.8416025660473,-164.05060293962953,-677.3867465035987,0.0,135.9020012875875,-425.59361251834076,325.75200995229346,-351.6347365513052,99.8416025660473,164.05060293962953
Finger2,5.873203157378239,77.0024304201591,1.9783939060646099,74.08292880343244,3.6511191899563187,8.881844271243494,0.6000514377026462,77.17000973347785,-12.989415125964584,-0.02749793000493206,76.88233916432495,1.6546328094872251,-0.4776449311064255,-4.557223814692634,19.337210609605236,-1.1421854522534103,837.7621622872291,0.0,41.01284459190689,647.1386985678082,-60.42418241354807,551.1267553784917,-397.14371930663737,-20.583656558403348,-204.14294354345972,506.75405719029834,-385.9003552242558,-122.83173618375774,-198.30294547207808,-93.71607159212388,31.715257690522737,-138.48725256779178,-421.0977816375547,416.66438064967434,-334.80929729530845,-295.5320265925451,-205.4727520320131,-250.56840644378033,156.75689126715685,-159.50895026861633,-85.65627555274361,-207.30085821394647,136.7516676897685,-77.38426563606026,48.05614806208199,-34.784661532393386,34.302531620597115,27.39927212762885,-837.7621622872291,0.0,-41.01284459190689,-647.1386985678082,60.42418241354807,-551.1267553784917,397.14371930663737,20.583656558403348,204.14294354345972,-506.75405719029834,385.9003552242558,122.83173618375774,198.30294547207808,93.71607159212388,-31.715257690522737,138.48725256779178,421.0977816375547,-416.66438064967434,334.80929729530845,295.5320265925451,205.4727520320131,250.56840644378033,-156.75689126715685,159.50895026861633,85.65627555274361,207.30085821394647,-136.7516676897685,77.38426563606026,-48.05614806208199,34.784661532393386,-34.302531620597115,-27.39927212762885
Finger2,5.523836150534164,6.2533958285624935,5.462207178196706,6.2533958285624935,5.523836075029811,0.36477988958358765,0.36477988958358765,6.253395741184411,-0.3955942392349243,-0.3955942988395691,76.88233916432495,1.6546328094872251,-0.4776449311064255,5.5238361214466885,1.4899338054260198,-0.7603741357126239,17.23943915729336,0.0,-10.986043328730869,6.2533958285624935,-17.23943915729336,0.0,10.986043328730869,-6.2533958285624935
Finger2,9.642084531553053,10.561275496752867,6.352122266095274,10.561275496752867,9.642084399340483,0.45959556102752686,0.45959556102752686,10.507284865722106,-0.6649521278701798,-0.23403507765139153,76.88233916432495,1.6546328094872251,-0.4776449311064255,9.790212182620124,0.8029800897390516,-0.41919472210731357,44.4050202451738,0.0,-17.520188234383703,22.856243704511662,-25.440532895428817,18.964487349744985,2.5842891909171524,-10.972307534515865,-44.4050202451738,0.0,17.520188234383703,-22.856243704511662,25.440532895428817,-18.964487349744985,-2.5842891909171524,10.972307534515865
Finger2,5.2229307480777845,16.20350485482778,14.738374307371666,16.20350485482778,4.761365409415241,4.138010363191839,-0.3106554778393935,16.20350462910564,-0.73256516456604,-0.7325652837753296,76.88233916432495,1.6546328094872251,-0.4776449311064255,4.445652277655597,5.0325309174118615,-0.5737497595049064,70.60564069879777,0.0,-26.90342879718563,38.51262339262656,-34.1876527833475,36.41798791545027,-4.324970609279056,-18.23821037472201,-70.60564069879777,0.0,26.90342879718563,-38.51262339262656,34.1876527833475,-36.41798791545027,4.324970609279056,18.23821037472201
Finger2,47.791061965184525,48.507037770343125,40.15295578640937,45.024007150732665,47.79106155765251,4.072773884383423,-1.8573928816063585,44.977028836255556,-3.035211266477063,0.48094872959541135,76.88233916432495,1.6546328094872251,-0.4776449311064255,49.26179689884896,-0.7758796410641935,-0.15169707160396229,314.7346728062528,0.0,-122.56711727774488,184.8277776307233,-178.7328883054759,136.00178450077686,-6.094889325247408,-121.15421608577398,-314.7346728062528,0.0,122.56711727774488,-184.8277776307233,178.7328883054759,-136.00178450077686,6.094889325247408,121.15421608577398
Finger2,21.9714054284494,26.7687574026907,17.464304380306103,18.74583203721047,21.931562674884816,1.4506555137124053,-0.08802214301417877,18.745831776558767,-0.6407636404037476,-0.6407637596130371,26.661657620836877,1.9440519142258381,-1.5156535304808756,21.396241164108233,2.5528230299846655,-0.34149034132225076,231.5147009275114,0.0,-57.190474129861144,133.6840338364214,-81.69985385523987,130.3361509583186,-18.11673746898238,-44.175155919146555,-116.3751729967573,115.13952793075411,-32.12988714003228,-78.29540296594507,-13.960977961561298,-63.16510081021153,11.804633644764571,2.0029342960870054,-231.5147009275114,0.0,57.190474129861144,-133.6840338364214,81.69985385523987,-130.3361509583186,18.11673746898238,44.175155919146555,116.3751729967573,-115.13952793075411,32.12988714003228,78.29540296594507,13.960977961561298,63.16510081021153,-11.804633644764571,-2.0029342960870054
Finger2,1.5745867381928174,44.968476573243564,5.901679469379348,49.72091277487223,-0.5331807450356791,4.434878165115691,0.08815287838375596,52.61610835877388,-9.74115750880435,0.2403752968470787,43.52026432988367,2.90049232689222,-0.25801375125404036,-10.133563305296093,10.165866423569597,-0.4291309063474831,710.3404594512673,0.0,0.8460740100704633,431.59140917120965,-100.68961087113944,440.098013106344,-106.71894743331907,-12.045706809515295,-180.00802494330082,429.3293659957912,-191.3071421207733,-70.8936616460692,-123.28742593448062,-91.32666368286473,-9.261507146616912,-16.970823958566875,-358.2661394235173,352.07432002775,-189.05206313288923,-188.38917985640137,-133.37477621365775,-220.07597165679232,36.97744269622891,-32.58597763596712,-71.06322657227389,-182.4923391648365,57.0288357019897,-26.563023005709653,39.69251887871876,-1.3255086539771384,0.21240264439425172,-2.668531458271808,-710.3404594512673,0.0,-0.8460740100704633,-431.59140917120965,100.68961087113944,-440.098013106344,106.71894743331907,12.045706809515295,180.00802494330082,-429.3293659957912,191.3071421207733,70.8936616460692,123.28742593448062,91.32666368286473,9.261507146616912,16.970823958566875,358.2661394235173,-352.07432002775,189.05206313288923,188.38917985640137,133.37477621365775,220.07597165679232,-36.97744269622891,32.58597763596712,71.06322657227389,182.4923391648365,-57.0288357019897,26.563023005709653,-39.69251887871876,1.3255086539771384,-0.21240264439425172,2.668531458271808
Finger2,34.829100233529886,39.107265510945666,24.86167217292191,25.31199613074957,35.008611592496266,1.4364674805883624,-0.04336224562274538,25.426488737835626,-0.6218208171579818,0.13179477946920315,39.01513922821414,2.8212589232842333,-2.4527548800171814,37.28056693732114,-0.3228843048198655,-0.1542643960655532,314.3105231504384,0.0,-104.30173542303572,177.6963267683529,-114.63800425685186,173.85816079093578,-16.72808926404713,-74.26988374500787,-156.80022184718115,157.51030130325728,-30.811964156152968,-116.02567116702654,-17.057938943754635,-82.80089967500331,15.747788749334383,11.764977658787426,-314.3105231504384,0.0,104.30173542303572,-177.6963267683529,114.63800425685186,-173.85816079093578,16.72808926404713,74.26988374500787,156.80022184718115,-157.51030130325728,30.811964156152968,116.02567116702654,17.057938943754635,82.80089967500331,-15.747788749334383,-11.764977658787426
Finger2,21.517171579626414,29.900385606522445,7.701737759995877,33.07056277516796,21.53724029094404,1.639266201783812,0.38058642291363753,33.255514179411065,-2.6442997931382024,-0.4894138828189263,29.78731200406871,0.11238626334710489,0.33990725395828747,19.287891105107917,5.769569131024568,-0.6173839450286032,299.849979917322,0.0,-67.1401112039807,179.14272072166352,-85.90152477011318,178.09959688431175,-42.88089752571066,-48.86856569435771,-153.34866862858485,146.50131128873716,-41.70086262611886,-98.48967410954177,-24.750928255726905,-81.56790858017715,16.796261677050605,0.300542674181294,-299.849979917322,0.0,67.1401112039807,-179.14272072166352,85.90152477011318,-178.09959688431175,42.88089752571066,48.86856569435771,153.34866862858485,-146.50131128873716,41.70086262611886,98.48967410954177,24.750928255726905,81.56790858017715,-16.796261677050605,-0.300542674181294
Finger2,19.17939168015855,20.29666429383013,42.03435547491589,44.23116202780584,19.17939141633394,0.5586364269256592,0.5586364269256592,44.23116162422994,2.056551775358912,-1.5774774204654136,20.024974264241138,1.2121009463129155,0.43956872960880844,17.17934087011747,4.643992624560013,-0.17337825267937745,331.36027496454403,0.0,-67.70248337367339,177.66407314763995,-113.01800870922509,185.86429793343063,-0.4794499824784566,-40.52121562090295,-161.09167998505646,170.26859497948755,-46.16997370674697,-92.26326478878303,-24.772617948374176,-82.85876832482711,1.6103320989336183,3.2353940260390672,-331.36027496454403,0.0,67.70248337367339,-177.66407314763995,113.01800870922509,-185.86429793343063,0.4794499824784566,40.52121562090295,161.09167998505646,-170.26859497948755,46.16997370674697,92.26326478878303,24.772617948374176,82.85876832482711,-1.6103320989336183,-3.2353940260390672
Finger2,33.53261119887404,36.50597543490464,4.793208606268474,42.12468977558476,33.5326107388112,1.486682653427124,1.486682415008545,43.57029624640805,-10.883772886384968,0.7254395474455002,36.20628959154266,0.8369617269266314,0.1724902268665005,35.219131115466695,3.2271508925828414,-0.5960480985131031,334.02119480062925,0.0,-78.21505764313284,208.88256523386053,-104.47898143664334,195.67422381986228,-61.329148592932555,-68.80696156858504,-172.86486607543134,161.15632872519794,-52.39788487716928,-121.49045780050483,-22.80935774443094,-95.05309725550485,27.891093619573617,-2.9439503864277015,-334.02119480062925,0.0,78.21505764313284,-208.88256523386053,104.47898143664334,-195.67422381986228,61.329148592932555,68.80696156858504,172.86486607543134,-161.15632872519794,52.39788487716928,121.49045780050483,22.80935774443094,95.05309725550485,-27.891093619573617,2.9439503864277015
Finger2,6.534016398561097,31.949219305943924,9.439668160332156,29.34926714415282,6.580084170930405,2.417517517215458,0.31911725223854503,29.45211073547633,-4.455986368507595,0.09566702636757185,31.182915371484455,1.7537746610158536,-0.3191869822136084,3.161341323016586,6.671590081325739,-0.3767328832601833,405.18922966932644,0.0,0.8084271117954636,286.33654210675786,-50.4352330195367,252.00183279058132,-136.17261619477392,-13.492860485463314,-112.54782572348833,240.3828277133847,-144.36185132700632,-58.77779711052815,-68.60561106249031,-51.45377769678684,-0.47974543268828285,-37.82653080487939,-203.54688773028514,201.64234193904127,-137.68626968936684,-136.59026027158978,-83.27304164112525,-122.93661026466752,56.88647770642535,-52.28883083498085,-36.83593998309955,-104.6012587011073,55.34334126553565,-25.990427021461542,21.035299722153212,-8.450419445935957,11.763625391520097,10.654328092797735,-405.18922966932644,0.0,-0.8084271117954636,-286.33654210675786,50.4352330195367,-252.00183279058132,136.17261619477392,13.492860485463314,112.54782572348833,-240.3828277133847,144.36185132700632,58.77779711052815,68.60561106249031,51.45377769678684,0.47974543268828285,37.82653080487939,203.54688773028514,-201.64234193904127,137.68626968936684,136.59026027158978,83.27304164112525,122.93661026466752,-56.88647770642535,52.28883083498085,36.83593998309955,104.6012587011073,-55.34334126553565,25.990427021461542,-21.035299722153212,8.450419445935957,-11.763625391520097,-10.654328092797735
Finger2,38.23831676638369,41.81545633400318,6.88410240954367,7.01561997251528,38.62418961005815,1.2327369360598937,-0.11616334668524075,7.015619875375799,-0.06575870513916016,-0.06575876474380493,42.31871228818663,0.32035676936901325,-1.4939562971743392,39.036692548088894,2.377268882274322,-0.534219330540175,355.02507594420894,0.0,-87.68529267605585,215.81154808139837,-111.92086466979896,205.4858148115177,-54.066237859522445,-68.29902108991853,-184.83879927846198,170.18627666574696,-48.805143390663076,-125.59417278619273,-20.647015533055722,-97.37395442389328,21.707165915170833,-1.9448074082702647,-355.02507594420894,0.0,87.68529267605585,-215.81154808139837,111.92086466979896,-205.4858148115177,54.066237859522445,68.29902108991853,184.83879927846198,-170.18627666574696,48.805143390663076,125.59417278619273,20.647015533055722,97.37395442389328,-21.707165915170833,1.9448074082702647
Finger2,42.370459482960484,44.070655053054914,45.63879126972352,48.27023823898038,42.370458899225014,0.8500981330871582,0.8500981330871582,48.27023756859216,-1.315722942352295,-1.315722942352295,42.31871228818663,0.32035676936901325,-1.4939562971743392,41.90393824784604,4.64919007709932,-1.0829107020214792,180.3501440447193,0.0,-90.64069772194087,89.70944632277843,-180.3501440447193,0.0,90.64069772194087,-89.70944632277843
Finger2,4.692259040220299,39.214704936283596,37.67310358264263,41.24176941985299,3.1626973286655016,8.452240053310788,-0.39529828474068296,41.24176884552517,-1.784332513809204,-1.7843327522277832,39.21470452386595,-1.0135315572784975,1.0135320001022023,2.1398349924961906,9.841899986915678,-0.6353884486453119,283.1981414936497,0.0,-32.760465793380014,162.0657846763749,-88.84319948260026,161.95814093411406,-17.49419550686194,-26.14234659984898,-135.22266268216623,147.97547881148347,-58.55684534247415,-74.24936270356328,-26.735478251947825,-68.26788963480962,3.7013279002219885,-5.853313093107783,-283.1981414936497,0.0,32.760465793380014,-162.0657846763749,88.84319948260026,-161.95814093411406,17.49419550686194,26.14234659984898,135.22266268216623,-147.97547881148347,58.55684534247415,74.24936270356328,26.735478251947825,68.26788963480962,-3.7013279002219885,5.853313093107783
Finger2,4.5086442327138165,19.37715230104996,17.516102697717088,19.087471645881443,4.152198590829144,2.211179941164545,0.41146878578040713,19.087471380166054,-0.78568434715271,-0.78568434715271,19.377152110175267,0.14484060448171476,-0.14484041795219582,2.6865589619892916,5.6258041511567995,-0.4847813392498672,111.14560046018883,0.0,-18.91874813739412,70.42068106275347,-53.65323880057441,57.49236165961443,-16.76744226217906,-24.80039387044097,-111.14560046018883,0.0,18.91874813739412,-70.42068106275347,53.65323880057441,-57.49236165961443,16.76744226217906,24.80039387044097
Finger2,22.15989174501815,24.251558183361695,32.093451070836906,33.475451427442565,22.15989152060051,-0.011665479627140485,0.5287494048283463,33.58499308224033,2.6306301445332565,-1.0547749323242215,24.251557848607206,-4.611945820132121,4.61194629324504,20.001862491046865,4.182658139057196,-0.3148288517393567,233.05328877848615,0.0,-53.842855507937145,142.60235558353045,-114.18542914166234,118.86785963682384,-28.416926441868128,-56.757598304678034,-233.05328877848615,0.0,53.842855507937145,-142.60235558353045,114.18542914166234,-118.86785963682384,28.416926441868128,56.757598304678034
Finger2,4.296641246821232,29.21284295298884,3.5304847977204488,29.366124647049276,2.9901548103435402,4.387206543949304,-0.0755359511109468,30.60653751517181,-4.898344436416579,0.13910450320122614,24.251557848607206,-4.611945820132121,4.61194629324504,1.3582631338274922,6.725140047508688,-0.45595785533243527,263.36127524364605,0.0,-33.588997464627454,164.64393001383485,-66.05894546493113,158.7117941403941,-47.7175483231672,-32.07575583320896,-133.4633416733612,129.89793357028483,-51.476309773263765,-80.85679809321299,-25.24845246703289,-66.31577269302196,13.462573804265132,-1.8754598703371528,-263.36127524364605,0.0,33.588997464627454,-164.64393001383485,66.05894546493113,-158.7117941403941,47.7175483231672,32.07575583320896,133.4633416733612,-129.89793357028483,51.476309773263765,80.85679809321299,25.24845246703289,66.31577269302196,-13.462573804265132,1.8754598703371528
Finger2,31.979428450283365,36.122031856512734,6.670746556925817,37.70475448020058,31.979428013066805,2.0713019371032715,2.0713016986846924,37.46723391334821,-1.8105640698894803,-0.862490258251615,35.847679603138516,0.7760695829088036,-0.05446265174944642,31.43639486040803,4.731762344902037,-0.7114773067042002,332.1285096673453,0.0,-84.26264621386716,195.70100546542483,-110.4446331251421,190.48621554432611,-37.26901104437748,-65.37019911352263,-173.08477767067183,159.0437319966735,-39.05485020577722,-114.76629702630004,-17.401437873654288,-93.41048374299511,19.06850132511223,6.063565763294548,-332.1285096673453,0.0,84.26264621386716,-195.70100546542483,110.4446331251421,-190.48621554432611,37.26901104437748,65.37019911352263,173.08477767067183,-159.0437319966735,39.05485020577722,114.76629702630004,17.401437873654288,93.41048374299511,-19.06850132511223,-6.063565763294548
Finger2,32.66105017054733,34.331177784384955,22.663677919997266,25.380748718095315,32.55005194362063,3.0184101615133727,-0.7959007436771373,25.344376509677332,-1.0381231354561464,0.05222697286995981,34.331177530577506,4.475214622967087,-4.475214503416083,34.7762699247952,-0.5221469197637987,-0.15238570748605085,263.10245623226695,0.0,-76.8996196189876,149.8428055716717,-86.72479385131973,143.23871695862488,-20.052660444259693,-44.778982171074446,-145.36480819892768,117.73764803333928,-13.92491702625449,-85.92312417021422,2.126091240302813,-61.33124091898341,-6.306418227873737,5.215771920068342,-263.10245623226695,0.0,76.8996196189876,-149.8428055716717,86.72479385131973,-143.23871695862488,20.052660444259693,44.778982171074446,145.36480819892768,-117.73764803333928,13.92491702625449,85.92312417021422,-2.126091240302813,61.33124091898341,6.306418227873737,-5.215771920068342
Finger2,2.182195573280415,28.993996346096125,8.186913946030934,30.226883834944342,0.8669980775736974,6.014496093581215,-0.2746851741148326,30.352769751975885,-4.2299140442764696,-0.3436130447460677,28.811168633863645,0.1322061641166954,0.0034076311815738336,0.9901415361725867,5.897289654875308,-0.2822173930793386,443.2109042536915,0.0,-4.8196321270011,281.9054313501325,-50.94469888303676,274.75888605688124,-88.83699762620643,-10.729287253157178,-102.96290269208204,271.9683384708757,-134.83366402187033,-48.05065023516987,-81.74677420160461,-44.267988946710425,-1.916683880093359,-19.73073108360557,-219.26796492107133,223.9429393326202,-128.3669861799642,-126.90708828439364,-90.0157906767129,-125.47376938862837,30.7492230286828,-31.585081854843693,-52.7003735498044,-110.92847271087545,43.88814053594989,-25.262044235726563,20.20326703551068,-9.712281306922783,6.804291522381794,4.561888524306332,-443.2109042536915,0.0,4.8196321270011,-281.9054313501325,50.94469888303676,-274.75888605688124,88.83699762620643,10.729287253157178,102.96290269208204,-271.9683384708757,134.83366402187033,48.05065023516987,81.74677420160461,44.267988946710425,1.916683880093359,19.73073108360557,219.26796492107133,-223.9429393326202,128.3669861799642,126.90708828439364,90.0157906767129,125.47376938862837,-30.7492230286828,31.585081854843693,52.7003735498044,110.92847271087545,-43.88814053594989,25.262044235726563,-20.20326703551068,9.712281306922783,-6.804291522381794,-4.561888524306332
Finger2,33.36475036356022,35.774450792537024,4.118485791749468,36.8223695156019,33.364749905155115,1.204850673675537,1.204850435256958,38.13816034499199,-6.438463316068265,-0.13828738456339273,35.77445042431336,-0.5239587751395902,0.5239591590819259,34.263739204946276,2.8030775921732243,-0.8758660258547426,230.60777723102206,0.0,-81.76877654097206,145.85237576229122,-83.08559217962487,128.7705602056823,-42.02722784819567,-69.51459832600004,-123.53457729821281,107.07319993280925,-23.301478546250515,-100.2396854554856,-5.235982907469506,-65.66776378111189,21.99957385440719,5.5571970572256575,-230.60777723102206,0.0,81.76877654097206,-145.85237576229122,83.08559217962487,-128.7705602056823,42.02722784819567,69.51459832600004,123.53457729821281,-107.07319993280925,23.301478546250515,100.2396854554856,5.235982907469506,65.66776378111189,-21.99957385440719,-5.5571970572256575
Finger2,25.107306574952496,31.097100603248283,4.793208594246134,30.797426695578245,25.107306346846315,1.7402334600438962,0.6273318354696755,31.769792315365585,-10.046692462363026,0.7466852941588069,35.77445042431336,-0.5239587751395902,0.5239591590819259,26.10253499948253,3.540557768477484,-1.0249573059250228,164.46187494475177,0.0,-54.47766603014163,92.20914178830509,-85.86065337317672,78.60122157157505,-6.348488415128365,-41.87638266796097,-164.46187494475177,0.0,54.47766603014163,-92.20914178830509,85.86065337317672,-78.60122157157505,6.348488415128365,41.87638266796097
Finger2,33.92305424987703,34.01146989486752,27.51971980791631,31.337378674691255,33.923053781024336,0.04420828819274902,0.04420828819274902,30.849045653349876,-0.4908753239311352,-0.06167804436862667,35.77445042431336,-0.5239587751395902,0.5239591590819259,34.34230884153345,-1.5253438386079097,0.07754633545300749,215.42065814961416,0.0,-88.10490194531616,124.40013558477975,-122.7288061605993,92.69185198901486,-1.671329424180442,-83.09029274993199,-215.42065814961416,0.0,88.10490194531616,-124.40013558477975,122.7288061605993,-92.69185198901486,1.671329424180442,83.09029274993199
Finger2,4.671945348065132,4.7326247264733246,32.874120003062295,40.81965121499589,4.67194528355091,0.030339717864990234,0.030339717864990234,41.76018425103959,-1.7933760891039299,0.09028285184031759,2.4582599294255374,2.1921851976044877,0.3499416517122995,-2.276761382016275,6.984100707912432,-0.2961006913201487,499.0459694050825,0.0,33.246134264145354,323.91145356323153,-68.18321521634812,290.4093277784949,-104.2927737220935,19.80789290073277,-146.69527643760148,292.5347687981753,-134.94946086631154,-32.47299497552356,-46.35675533587505,-54.94470512990529,-44.06361603601471,-14.754182927759548,-242.64142829936569,256.4045411057168,-171.4101602990453,-129.86939884375172,-93.43223944034875,-137.54872287434455,29.452424340072003,-51.97426281668116,-49.893340498809664,-126.51260624883207,42.89050078829023,-33.79802316214486,15.269713186099612,-3.1632658840618717,11.191429901487917,6.2822727959926645,-499.0459694050825,0.0,-33.246134264145354,-323.91145356323153,68.18321521634812,-290.4093277784949,104.2927737220935,-19.80789290073277,146.69527643760148,-292.5347687981753,134.94946086631154,32.47299497552356,46.35675533587505,54.94470512990529,44.06361603601471,14.754182927759548,242.64142829936569,-256.4045411057168,171.4101602990453,129.86939884375172,93.43223944034875,137.54872287434455,-29.452424340072003,51.97426281668116,49.893340498809664,126.51260624883207,-42.89050078829023,33.79802316214486,-15.269713186099612,3.1632658840618717,-11.191429901487917,-6.2822727959926645
Finger2,32.43226966107988,35.21853465167757,4.726830595644596,36.25415597605544,32.4322692160083,1.3931326866149902,1.3931326866149902,37.15490288915476,-7.351654219406782,0.12476026473329682,35.467855468198906,-0.12555420409324825,0.03411056145367297,31.139431655730846,3.703628733593476,-0.5040224252622929,366.0810766356959,0.0,-98.33203533289478,211.64510444718277,-113.42406744541373,212.41298896556793,-35.919193684144254,-68.23965707090967,-191.09450182951178,174.98657480618414,-35.95032679091102,-126.2707218079672,-21.318487136056135,-99.68715622291805,17.95563442776656,13.16688003833552,-366.0810766356959,0.0,98.33203533289478,-211.64510444718277,113.42406744541373,-212.41298896556793,35.919193684144254,68.23965707090967,191.09450182951178,-174.98657480618414,35.95032679091102,126.2707218079672,21.318487136056135,99.68715622291805,-17.95563442776656,-13.16688003833552
Finger2,17.612196723439546,20.32135016587781,11.803631738946635,20.1828481765069,17.61219648315189,1.354576826095581,1.354576826095581,20.182847990228836,0.29007996067531394,-2.239844039995802,35.467855468198906,-0.12555420409324825,0.03411056145367297,17.501919335345534,4.369024323675262,-1.4348909781540016,88.15311074387927,0.0,-30.892455672257693,47.444949976952536,-49.59867663889308,38.554434104986186,2.1537266619405457,-21.659475386378414,-88.15311074387927,0.0,30.892455672257693,-47.444949976952536,49.59867663889308,-38.554434104986186,-2.1537266619405457,21.659475386378414
Finger2,1.081824275568182,37.64793411783096,1.298536790057568,42.227925551491765,-0.4714113264117259,4.683450618618764,0.020193947703955217,44.01109193383671,-11.322066833996907,0.47292974910508256,36.93496381257461,0.8297438035991149,0.0037650209644013444,-7.295242630506721,8.938251715195626,-0.4004666396937373,578.295764240126,0.0,12.923714436278253,353.8380067077387,-77.84367330763898,349.7835267232996,-83.2542487432271,1.1825263230253107,-146.25481181269012,348.6667777321726,-157.9119178436515,-49.978984434628046,-87.01454887971423,-63.202445377656375,-19.38952577280353,-8.548030345485689,-289.2945682080864,289.0011960320396,-163.57445420462886,-145.61826048397842,-103.62127626760224,-163.8191366702677,15.588215131009939,-31.48900319769759,-59.3722095240862,-145.58438809839305,42.68033363738219,-26.54632559350989,21.128284707683413,-2.767666313798692,4.35711363446644,-6.5440421464889855,-578.295764240126,0.0,-12.923714436278253,-353.8380067077387,77.84367330763898,-349.7835267232996,83.2542487432271,-1.1825263230253107,146.25481181269012,-348.6667777321726,157.9119178436515,49.978984434628046,87.01454887971423,63.202445377656375,19.38952577280353,8.548030345485689,289.2945682080864,-289.0011960320396,163.57445420462886,145.61826048397842,103.62127626760224,163.8191366702677,-15.588215131009939,31.48900319769759,59.3722095240862,145.58438809839305,-42.68033363738219,26.54632559350989,-21.128284707683413,2.767666313798692,-4.35711363446644,6.5440421464889855
Finger2,8.551346987050279,25.577578481931454,23.462257126657708,25.577578481931454,7.516016736362815,3.748790773308315,0.01631453598334076,25.57757812585637,-1.0576603412628174,-1.0576605796813965,36.93496381257461,0.8297438035991149,0.0037650209644013444,6.6667515674430575,5.53224764702054,-0.4083180541483209,125.68751869870316,0.0,-42.63745812858157,76.53938975614741,-68.22284693584596,57.46467176285719,-8.31654282030145,-46.22607254067957,-125.68751869870316,0.0,42.63745812858157,-76.53938975614741,68.22284693584596,-57.46467176285719,8.31654282030145,46.22607254067957
Finger2,29.70305654301476,32.34212911665182,3.8456325887661884,31.94886643263481,29.703056135499097,1.3195366859436035,1.3195366859436035,32.447459383231966,-4.191359812730688,-0.00781868330392399,31.90511176071587,1.5246391127919878,-0.3430219050363661,31.444119625764372,1.4998129425088251,-0.34001981602425957,304.74608454929813,0.0,-86.32701724776916,183.20776111255796,-98.75062233148802,174.69554052279926,-40.31641587271175,-67.32841914186841,-160.87283887836927,143.87324567092887,-32.51597773483395,-113.96154703967018,-13.822701644430012,-83.80136920825353,19.820192786656897,9.696031650521029,-304.74608454929813,0.0,86.32701724776916,-183.20776111255796,98.75062233148802,-174.69554052279926,40.31641587271175,67.32841914186841,160.87283887836927,-143.87324567092887,32.51597773483395,113.96154703967018,13.822701644430012,83.80136920825353,-19.820192786656897,-9.696031650521029
Finger2,35.403474133579785,37.111965831251304,33.2586732157229,33.582763574233226,35.18542350659368,1.8625368648376366,-0.29073300524410683,33.48076548467699,1.3605891889388317,-0.4668735620310116,31.90511176071587,1.5246391127919878,-0.3430219050363661,36.06965509338926,0.7795764762565796,-0.1304099863574173,358.61064661426906,0.0,-106.30357978697893,197.92590913173498,-132.0799882328371,197.9916172776537,-10.472315679422984,-72.97495291053961,-178.95441848763596,179.65622812663312,-37.07396817605489,-121.70788375365368,-19.037198790017754,-95.0365299190293,12.469214218467528,10.29179113356016,-358.61064661426906,0.0,106.30357978697893,-197.92590913173498,132.0799882328371,-197.9916172776537,10.472315679422984,72.97495291053961,178.95441848763596,-179.65622812663312,37.07396817605489,121.70788375365368,19.037198790017754,95.0365299190293,-12.469214218467528,-10.29179113356016
Finger2,3.217036121698903,27.125300989349547,16.802874219978737,31.541093848201072,3.2406287754890286,7.279430375009582,-0.33231170512303976,31.49153183723476,-4.683015684350124,-0.06556099311913499,27.0625019941117,0.3408479649294236,0.10571919864609924,3.010188133523542,7.9847881595784,-0.5655453962573578,294.3414146457375,0.0,-60.95991599824677,189.42187786670863,-75.689340467054,174.07436542086634,-56.59757117490388,-59.29084373116414,-150.0250273030789,144.31638734265854,-50.26567778510534,-111.52200743232083,-24.049338117787457,-69.71885175303123,21.99658474658163,14.419463308254322,-294.3414146457375,0.0,60.95991599824677,-189.42187786670863,75.689340467054,-174.07436542086634,56.59757117490388,59.29084373116414,150.0250273030789,-144.31638734265854,50.26567778510534,111.52200743232083,24.049338117787457,69.71885175303123,-21.99658474658163,-14.419463308254322
Finger2,26.175201863869795,27.767616992402335,24.718024477086537,25.70708350530131,26.17520159733469,-0.15957671935825601,0.47789220764920515,25.707083148760272,-0.49452924728393555,-0.49452924728393555,27.0625019941117,0.3408479649294236,0.10571919864609924,26.062534534494503,1.329744744677356,-0.42495588211853885,130.86144391631515,0.0,-51.44931885292051,64.67901564662131,-78.66084333335867,52.20060058295648,13.981827686737361,-28.323709504366516,-130.86144391631515,0.0,51.44931885292051,-64.67901564662131,78.66084333335867,-52.20060058295648,-13.981827686737361,28.323709504366516
Finger2,2.9041717437903327,35.58256007888077,3.7034131651822184,30.608040838637294,1.0075414190073673,4.077853802084064,0.34248155528840485,32.29327609034465,-7.086821153832311,0.20193546788499894,35.722646232795256,0.6062696620630561,-0.13013320858613397,-0.5359587493449283,7.5712190020981325,-0.3755561460349566,500.8547175786791,0.0,1.6648839553328045,333.7500165614753,-47.81685991526623,308.5385289275554,-128.3942259705973,-5.5142670145252275,-135.23718061424432,297.9862686937413,-153.8671742137216,-62.259971130578954,-79.16901211290691,-52.93858716488036,-4.051125053299834,-22.889627931026155,-253.9045291625284,246.9501884161507,-151.37929489151452,-150.06562350662134,-100.22736148604501,-140.04658803001996,43.09443244882809,-47.76170689522849,-44.08173953121292,-128.064883150487,50.64465955084693,-25.183272420837937,19.093453894861486,-5.8598099129096965,9.336822729940275,5.185186580829967,-500.8547175786791,0.0,-1.6648839553328045,-333.7500165614753,47.81685991526623,-308.5385289275554,128.3942259705973,5.5142670145252275,135.23718061424432,-297.9862686937413,153.8671742137216,62.259971130578954,79.16901211290691,52.93858716488036,4.051125053299834,22.889627931026155,253.9045291625284,-246.9501884161507,151.37929489151452,150.06562350662134,100.22736148604501,140.04658803001996,-43.09443244882809,47.76170689522849,44.08173953121292,128.064883150487,-50.64465955084693,25.183272420837937,-19.093453894861486,5.8598099129096965,-9.336822729940275,-5.185186580829967
Finger2,10.74182834382235,17.27058901058411,11.197390080441087,16.553307441959912,10.650770736985791,1.4744542907832283,0.2541681024914766,16.55330721238857,-4.041895715241708,0.6819685687291468,35.722646232795256,0.6062696620630561,-0.13013320858613397,9.952499908439208,4.0226537893743455,-0.6394614208880185,95.95223973465065,0.0,-32.97250430701533,56.18858409655512,-53.38205015216455,42.570189582486094,-2.806533944390573,-31.764282887615344,-95.95223973465065,0.0,32.97250430701533,-56.18858409655512,53.38205015216455,-42.570189582486094,2.806533944390573,31.764282887615344
Finger2,33.34527271219748,34.24937711510144,37.19163090042724,37.35614859370916,33.46235843731456,0.6179667051208071,-0.1315519430432488,37.35614827878452,3.338923796188965,-1.7105912363718971,35.722646232795256,0.6062696620630561,-0.13013320858613397,33.1162375297354,0.7189688735110167,0.025667671929461733,249.24776752862397,0.0,-98.30343008907084,147.0503992247937,-141.71387812852896,107.53388940009499,-5.3365210962647325,-98.61446560578653,-249.24776752862397,0.0,98.30343008907084,-147.0503992247937,141.71387812852896,-107.53388940009499,5.3365210962647325,98.61446560578653
Finger2,15.781965880459444,19.6039406724508,14.524188480270338,18.485698490978248,15.78196572679645,0.5105206977118542,0.7002333873205089,18.485698230771348,-1.9807547330856323,-1.9807548522949219,19.603940487593846,0.5591213316789094,-0.5591211635955347,15.184948804221847,3.631793415593876,-0.7360714969404469,105.10266187936416,0.0,-42.613475831011975,55.829768368169084,-53.87160504388849,51.23105683547567,-1.9581633242805907,-27.94975213202509,-105.10266187936416,0.0,42.613475831011975,-55.829768368169084,53.87160504388849,-51.23105683547567,1.9581633242805907,27.94975213202509
Finger2,5.102086401366963,40.19384472337445,1.8874895450948252,37.91877445129673,5.905963368879185,4.32316861056151,-0.017941741001116895,36.29892014209438,-5.637924735870705,0.2135361064535184,19.603940487593846,0.5591213316789094,-0.5591211635955347,5.6655811021871045,6.177171987886744,-0.3739565892474537,375.26800420396074,0.0,-24.051975606589394,277.4883605369407,-61.551806391576946,226.18009984197084,-135.2302603037088,-52.37647314268087,-101.92507670766553,223.43912156660568,-145.45521276677988,-80.83289880394818,-52.49853777036326,-52.00995777494363,27.408168526071286,-20.726247959459318,-188.9216438677748,186.34636033618594,-122.12466522399637,-146.10098254687023,-60.585151510823515,-112.08542657944429,68.4035557776725,-29.25917587818431,-34.517477698830874,-96.34812588680417,61.3405864130002,-20.802315009016738,16.059285191834853,5.082108643123995,-1.7729619350462826,9.90823374749412,-375.26800420396074,0.0,24.051975606589394,-277.4883605369407,61.551806391576946,-226.18009984197084,135.2302603037088,52.37647314268087,101.92507670766553,-223.43912156660568,145.45521276677988,80.83289880394818,52.49853777036326,52.00995777494363,-27.408168526071286,20.726247959459318,188.9216438677748,-186.34636033618594,122.12466522399637,146.10098254687023,60.585151510823515,112.08542657944429,-68.4035557776725,29.25917587818431,34.517477698830874,96.34812588680417,-61.3405864130002,20.802315009016738,-16.059285191834853,-5.082108643123995,1.7729619350462826,-9.90823374749412
Finger2,1.9554457038471542,45.70507716482577,10.931642520091893,45.98893524583449,1.2157512438183744,4.200507994972469,0.03030173146461479,45.60022578866777,-3.0069614391911017,-0.28648133041339996,45.70507670493646,-0.1419283414450092,0.14192880559215837,-5.705668210337052,8.84445792207606,-0.4144849536207218,542.5558054874703,0.0,40.45221516009855,354.0396547471137,-80.05963641911329,339.03950337110206,-126.99720395527346,1.5192740227308352,-134.57957403526092,327.92312779049485,-182.85333346983288,-40.422019750421214,-99.73792783407401,-71.95440553769356,-7.825729098189143,-41.333425294614806,-270.91570318528926,271.64010230218105,-184.958647890863,-141.76759749601138,-104.20409053441821,-168.78187322429633,42.493092936602274,-54.9843497079818,-57.007424605205586,-135.3530096708019,54.05826696005284,-39.70073713467346,29.232225135952074,-3.6003653402139264,7.827784606287032,6.300922757489456,-542.5558054874703,0.0,-40.45221516009855,-354.0396547471137,80.05963641911329,-339.03950337110206,126.99720395527346,-1.5192740227308352,134.57957403526092,-327.92312779049485,182.85333346983288,40.422019750421214,99.73792783407401,71.95440553769356,7.825729098189143,41.333425294614806,270.91570318528926,-271.64010230218105,184.958647890863,141.76759749601138,104.20409053441821,168.78187322429633,-42.493092936602274,54.9843497079818,57.007424605205586,135.3530096708019,-54.05826696005284,39.70073713467346,-29.232225135952074,3.6003653402139264,-7.827784606287032,-6.300922757489456
Finger2,11.684348053430442,41.189789537083286,38.40091126592324,42.6444588114365,11.774618063125956,3.2294178528042323,0.5218532296324412,42.64445821692414,-2.1217732429504395,-2.1217734813690186,41.18978911063873,-0.7273339502329463,0.7273343984975895,8.742949419705326,8.343669509474182,-0.529830395924666,270.9732464372144,0.0,-4.0523882046271495,161.4722079690267,-73.98845667634292,151.47646337249222,-34.240808737492664,2.1614707142779714,-145.11812505111044,125.85512138610396,-50.063266919770186,-46.10721892782599,-6.35833832138178,-53.83723881187652,-25.205464267948592,-23.002386326943515,-270.9732464372144,0.0,4.0523882046271495,-161.4722079690267,73.98845667634292,-151.47646337249222,34.240808737492664,-2.1614707142779714,145.11812505111044,-125.85512138610396,50.063266919770186,46.10721892782599,6.35833832138178,53.83723881187652,25.205464267948592,23.002386326943515
Finger2,3.671499737839333,31.837261780721363,1.0454499905852948,33.38928505794985,3.3715532280453147,9.481770825038296,-0.7551016139438573,33.29596648641911,-3.4153183440266304,-0.013022545116971429,31.70115661798671,0.5125906866362584,0.03182902592300252,8.332124212491564,6.010673274417542,-0.39582309289142437,363.0670260828619,0.0,-42.50188572382422,269.38910205861805,-43.01762523572681,233.98133594334246,-146.5338252962594,-54.46353475400381,-91.66915819578328,219.42874048314297,-144.11711940179507,-88.89163263794555,-78.3458335540746,-49.10821819695454,38.073365933404624,-34.83268207376083,-183.43740452215,179.6296215607119,-109.61804644389392,-154.23557265574817,-77.43749810198585,-113.89584984457913,79.60523241848477,-34.17889578702327,-35.991335960992984,-93.05458762481395,65.44648387958689,-16.46146671840016,23.253859560593032,-7.1213875606235035,2.8309038797477726,13.355619755508503,-363.0670260828619,0.0,42.50188572382422,-269.38910205861805,43.01762523572681,-233.98133594334246,146.5338252962594,54.46353475400381,91.66915819578328,-219.42874048314297,144.11711940179507,88.89163263794555,78.3458335540746,49.10821819695454,-38.073365933404624,34.83268207376083,183.43740452215,-179.6296215607119,109.61804644389392,154.23557265574817,77.43749810198585,113.89584984457913,-79.60523241848477,34.17889578702327,35.991335960992984,93.05458762481395,-65.44648387958689,16.46146671840016,-23.253859560593032,7.1213875606235035,-2.8309038797477726,-13.355619755508503
Finger2,28.362063647551835,30.741734551904823,25.68719733341551,30.359654583767274,28.36206325826921,1.189836025238037,1.189835786819458,30.359654232615725,-3.051177739523041,0.35747464070061596,31.70115661798671,0.5125906866362584,0.03182902592300252,28.67292710623677,2.3084408153513323,-0.7877480928530645,142.8166011858345,0.0,-56.22416833905302,71.66012515985898,-84.40891556473463,58.40768562109986,12.748790404875635,-32.53456194185294,-142.8166011858345,0.0,56.22416833905302,-71.66012515985898,84.40891556473463,-58.40768562109986,-12.748790404875635,32.53456194185294
Finger2,7.090814411490917,34.546871687597914,20.519103844014136,35.1957334739584,7.151521931933132,5.033189701708096,-0.17159729468988516,35.58574271074802,-4.8391906524614114,0.2497008150482003,31.70115661798671,0.5125906866362584,0.03182902592300252,4.917359895284704,7.4338425742178345,-0.5117226180341738,311.1456977546534,0.0,-66.08979545065867,193.52110626486234,-81.02157762939846,180.0593629237987,-46.70647775198411,-55.04029972454621,-160.35453107218189,150.79116668247147,-46.034296035889895,-111.72236515259091,-19.70483185161683,-67.53485939640086,11.404715892197617,16.207236706089724,-311.1456977546534,0.0,66.08979545065867,-193.52110626486234,81.02157762939846,-180.0593629237987,46.70647775198411,55.04029972454621,160.35453107218189,-150.79116668247147,46.034296035889895,111.72236515259091,19.70483185161683,67.53485939640086,-11.404715892197617,-16.207236706089724
Finger2,19.934435181507332,25.762457872978587,12.10928283902885,24.99585414075146,19.934435045321983,4.025372090110636,-0.5556803324148518,25.24661196201474,-3.620743659531172,0.06980019183144393,31.70115661798671,0.5125906866362584,0.03182902592300252,20.92716896120831,2.9254426401470823,-0.6293506904094066,161.2206491657393,0.0,-45.347938714636804,96.00826249687697,-82.49280691580765,78.72784224993164,-13.515455581069304,-43.53367454636019,-161.2206491657393,0.0,45.347938714636804,-96.00826249687697,82.49280691580765,-78.72784224993164,13.515455581069304,43.53367454636019
Finger2,1.7638720267746646,33.29689328579316,3.6697430707779666,31.716219277750834,0.6652233129228193,2.839523918782561,0.17638687238495265,32.81438600771421,-6.170516603399875,0.04313540505578217,32.4400359619608,1.8495597719910108,-0.2044471331016524,-5.104991055408618,7.123835857975777,-0.3028507689861235,535.5970094400889,0.0,-15.684398642852397,334.6143487281649,-78.70911647643142,333.9349439826723,-97.98741872034921,-26.219159197366064,-131.91967052743098,326.4182389780977,-154.49535508744808,-67.95570474515844,-100.74502770989427,-69.94428723820525,6.376169854196084,-19.763758086415557,-268.03327758766306,267.5637318524258,-142.8727019417341,-154.767039068604,-101.22075362439698,-164.25691766807728,39.03210320516327,-26.4987067376989,-58.3849613904346,-138.33061251110456,52.62145596610709,-20.18006440017892,31.291465596271948,-5.452550122029265,1.4672625756892028,2.1939374276006696,-535.5970094400889,0.0,15.684398642852397,-334.6143487281649,78.70911647643142,-333.9349439826723,97.98741872034921,26.219159197366064,131.91967052743098,-326.4182389780977,154.49535508744808,67.95570474515844,100.74502770989427,69.94428723820525,-6.376169854196084,19.763758086415557,268.03327758766306,-267.5637318524258,142.8727019417341,154.767039068604,101.22075362439698,164.25691766807728,-39.03210320516327,26.4987067376989,58.3849613904346,138.33061251110456,-52.62145596610709,20.18006440017892,-31.291465596271948,5.452550122029265,-1.4672625756892028,-2.1939374276006696
Finger2,18.496160384125666,20.88971676011302,5.771312796289053,21.78580225836478,18.49616013124688,1.196778416633606,1.1967782974243164,21.923287610998305,-2.1595256684421997,-1.0900981564657322,32.4400359619608,1.8495597719910108,-0.2044471331016524,18.42480113498671,4.188551679498218,-1.3548469560063587,98.86049960629158,0.0,-36.68381676643466,54.133922318721304,-53.113349499662206,45.74715010662938,-1.020572819059094,-27.14207178350201,-98.86049960629158,0.0,36.68381676643466,-54.133922318721304,53.113349499662206,-45.74715010662938,1.020572819059094,27.14207178350201
Finger2,39.18369678162353,42.82977680658503,6.396883788469816,38.921080089537575,39.18369624423039,1.82304048538208,1.823040246963501,39.288029489918806,-5.042826830705664,-0.8313753314295376,42.435663110958615,1.7328621345786814,-0.6236729493198823,38.93833177390957,4.195611627114175,-0.8704291264101922,330.1135403217113,0.0,-83.57327070349915,200.04507454845253,-108.4442485617647,188.6298829594195,-46.7745084392429,-66.76131739905863,-172.41440115248693,157.69913916922434,-43.6744417940527,-117.89310152661389,-16.21548180693256,-90.26935194043752,19.45448422549509,0.6334905380210785,-330.1135403217113,0.0,83.57327070349915,-200.04507454845253,108.4442485617647,-188.6298829594195,46.7745084392429,66.76131739905863,172.41440115248693,-157.69913916922434,43.6744417940527,117.89310152661389,16.21548180693256,90.26935194043752,-19.45448422549509,-0.6334905380210785
Finger2,30.94879768484413,33.3989400576102,6.638770936320035,32.10143731155315,30.948797259885026,1.2250714302062988,1.2250714302062988,32.47415766840854,-7.135742374804266,-0.5334311548490831,33.398939736595835,0.6487518123813629,-0.6487515108294417,30.891151447439157,4.35885385353167,-1.4276573826612307,177.8571695429789,0.0,-68.36121918111178,97.4216253098447,-97.40600619929829,80.45116334368063,-0.015619110546403192,-52.023337292176535,-177.8571695429789,0.0,68.36121918111178,-97.4216253098447,97.40600619929829,-80.45116334368063,0.015619110546403192,52.023337292176535
Finger2,2.992743810657546,28.83035080696898,5.644790546286188,27.615794974361734,1.7865144304254272,4.453500387390676,0.032673961711736865,28.014117845656912,-5.181318009388718,0.23399158411566212,28.11825063628072,1.7021131429796696,-0.23698203856592315,1.0027533800185608,6.285793822389728,-0.3293828154870413,400.78033961145354,0.0,5.2173476070375155,278.43523244219716,-43.96859521918534,255.44436620974102,-127.82418819458589,-12.681555015517574,-99.67508179678047,242.4152147794558,-148.88169442124166,-52.387231839476044,-82.31063677207642,-47.14638199895885,6.809877122969339,-39.03923862866691,-199.96798390262705,200.8123557088265,-134.5359221101908,-124.82801454476167,-88.25691290475797,-120.68218586150857,48.660021501127105,-50.69639777928029,-42.44723087682874,-100.54597051755233,49.04717123862183,-30.75272639075918,21.97345745184243,-12.333763459508916,13.152764423938402,6.613500848341058,-400.78033961145354,0.0,-5.2173476070375155,-278.43523244219716,43.96859521918534,-255.44436620974102,127.82418819458589,12.681555015517574,99.67508179678047,-242.4152147794558,148.88169442124166,52.387231839476044,82.31063677207642,47.14638199895885,-6.809877122969339,39.03923862866691,199.96798390262705,-200.8123557088265,134.5359221101908,124.82801454476167,88.25691290475797,120.68218586150857,-48.660021501127105,50.69639777928029,42.44723087682874,100.54597051755233,-49.04717123862183,30.75272639075918,-21.97345745184243,12.333763459508916,-13.152764423938402,-6.613500848341058
Finger2,23.42505663707385,35.93145972484778,5.86193890303542,34.13396031584346,23.302660579286453,2.263439485020598,0.059144092917641444,35.5738694906817,-7.4524613235784045,0.2391214361319367,35.71027973312192,1.5529350326424378,-0.6682160948830642,20.590349806119036,5.8513553542362615,-0.5561597119906017,365.24343060676574,0.0,-86.41470433587523,218.3821292072596,-109.41461855386632,214.33655810789446,-49.299790247151805,-66.88032793253356,-185.62597819123374,179.617452415532,-48.63648577082955,-121.6475193782598,-28.710579916660734,-98.44431933347212,20.634899469124818,5.327819283443617,-365.24343060676574,0.0,86.41470433587523,-218.3821292072596,109.41461855386632,-214.33655810789446,49.299790247151805,66.88032793253356,185.62597819123374,-179.617452415532,48.63648577082955,121.6475193782598,28.710579916660734,98.44431933347212,-20.634899469124818,-5.327819283443617
Finger2,8.701777110853142,44.49250874970855,5.734042902244739,39.87008260301437,8.469889622420396,4.74527121406453,0.2291176570292066,41.118443801574244,-4.9424391789385,-0.0483632033167396,43.66523297100977,2.9379828971477195,-0.7223766248897618,6.49224977466929,8.618948738564157,-0.4999038152008226,542.895833819573,0.0,-12.577629427258618,388.3176896737218,-63.0715787308158,340.7829782877304,-189.72771163139726,-31.08205962298083,-143.7037175248759,325.1837177658919,-201.49308442472085,-92.04785257085919,-99.9686814072584,-67.6517540715941,14.819916446547907,-48.56715410982004,-275.14020879043426,267.75562502913874,-174.78083395676467,-188.5481514859911,-108.73110962766253,-161.41721202223,76.87411149704755,-62.112319689992205,-50.04350897545763,-140.2673079483325,75.93584855320069,-27.216397696292717,27.723484309816623,-8.219528060976614,8.525438975853586,8.832157558009758,-542.895833819573,0.0,12.577629427258618,-388.3176896737218,63.0715787308158,-340.7829782877304,189.72771163139726,31.08205962298083,143.7037175248759,-325.1837177658919,201.49308442472085,92.04785257085919,99.9686814072584,67.6517540715941,-14.819916446547907,48.56715410982004,275.14020879043426,-267.75562502913874,174.78083395676467,188.5481514859911,108.73110962766253,161.41721202223,-76.87411149704755,62.112319689992205,50.04350897545763,140.2673079483325,-75.93584855320069,27.216397696292717,-27.723484309816623,8.219528060976614,-8.525438975853586,-8.832157558009758
Finger2,12.695358891790292,38.928534404992234,9.574470514979511,33.38662952426696,12.177177318299755,8.492389865168605,-0.41493561573514626,33.79526390337683,-4.631313498001504,-0.39107771036101013,38.88297844180909,0.6437139510882162,-0.16017897540517723,15.145667319833677,6.723645658231945,-0.44351699694928826,508.3907266720422,0.0,-43.07495811719092,357.357507547675,-63.66275689517123,332.7655761562671,-178.85838539993978,-52.33745871664555,-134.5479306526313,302.6790630423962,-184.52160769515376,-103.15747818649251,-115.91851885486312,-75.94902139813092,37.435629969224955,-55.10413793603455,-257.9076457903532,250.48308088168903,-149.06015877761607,-189.64879060521912,-110.87381745684633,-163.97108117351752,86.70359381150476,-56.096272174197765,-44.77141725204302,-127.7618408191889,71.93847612879117,-28.60135478233775,31.627017817958816,-14.090167920719509,15.703210705733433,14.072338283631762,-508.3907266720422,0.0,43.07495811719092,-357.357507547675,63.66275689517123,-332.7655761562671,178.85838539993978,52.33745871664555,134.5479306526313,-302.6790630423962,184.52160769515376,103.15747818649251,115.91851885486312,75.94902139813092,-37.435629969224955,55.10413793603455,257.9076457903532,-250.48308088168903,149.06015877761607,189.64879060521912,110.87381745684633,163.97108117351752,-86.70359381150476,56.096272174197765,44.77141725204302,127.7618408191889,-71.93847612879117,28.60135478233775,-31.627017817958816,14.090167920719509,-15.703210705733433,-14.072338283631762
Finger2,17.257236213159498,18.94599123006843,2.2505647474934367,18.94599123006843,17.257235976579004,0.8443776369094849,0.8443776369094849,18.519439854039,-0.4509050668600807,-1.6099565237604594,38.88297844180909,0.6437139510882162,-0.16017897540517723,17.269024953038894,2.8485826517255646,-1.6246925791479079,66.09017408070304,0.0,-24.095887376211728,37.38451602874195,-34.686725654789186,31.403448425913858,-2.6977903739527633,-19.76701110969504,-66.09017408070304,0.0,24.095887376211728,-37.38451602874195,34.686725654789186,-31.403448425913858,2.6977903739527633,19.76701110969504
Finger2,3.2692278084859696,48.7454652100621,5.012837454581106,44.82863026563205,3.9611744006403455,9.128373171893486,-0.3915731213701932,46.3556159409178,-7.110925864805154,-0.004497530040294961,48.41104738879349,2.5478381440233306,-1.2101682415339212,2.2479522123169886,11.258107599714052,-0.7124004733175697,503.56671310989805,0.0,-18.97173747320878,388.554457634238,-64.89520807599945,325.2797645201477,-231.15228202548894,-57.2210168203743,-123.4712330726057,304.1877646033038,-223.88356266560749,-103.69948585535687,-108.90190395287517,-70.58200193961682,41.88091989546805,-67.96433475510229,-251.05905471815913,252.50765839173891,-182.86259009134884,-201.45419767476147,-108.06865718173027,-160.302503687648,113.13142656428944,-69.56292432067868,-53.12870988514466,-123.68795246038448,91.42663478779028,-33.170419927570066,31.049698419407164,-7.593532812979831,4.128177001397567,18.93875456878601,-503.56671310989805,0.0,18.97173747320878,-388.554457634238,64.89520807599945,-325.2797645201477,231.15228202548894,57.2210168203743,123.4712330726057,-304.1877646033038,223.88356266560749,103.69948585535687,108.90190395287517,70.58200193961682,-41.88091989546805,67.96433475510229,251.05905471815913,-252.50765839173891,182.86259009134884,201.45419767476147,108.06865718173027,160.302503687648,-113.13142656428944,69.56292432067868,53.12870988514466,123.68795246038448,-91.42663478779028,33.170419927570066,-31.049698419407164,7.593532812979831,-4.128177001397567,-18.93875456878601
Finger2,40.871944456100024,41.11732206471022,21.635368446009274,23.184336389927193,40.8719440666285,1.1174064890108184,-0.4973587429665258,23.18433606760256,-0.7744836807250977,-0.7744839191436768,41.430033702425675,-0.4187778946056824,-0.6534759187712353,42.591186778543886,-1.4802956045811584,-0.1690733164359024,295.5390831149599,0.0,-93.13974679430574,168.31216595342164,-104.08926446320575,160.04104413575837,-21.679117260350303,-58.77554268451073,-164.54899395840218,130.9900891565577,-13.031561307569717,-102.45050260777049,4.507949822643809,-74.37439815465552,-1.162935964758299,8.586861581283003,-295.5390831149599,0.0,93.13974679430574,-168.31216595342164,104.08926446320575,-160.04104413575837,21.679117260350303,58.77554268451073,164.54899395840218,-130.9900891565577,13.031561307569717,102.45050260777049,-4.507949822643809,74.37439815465552,1.162935964758299,-8.586861581283003
Finger2,6.544616606899354,34.2000138090817,21.93726181861408,34.07591587670053,6.645136058661507,3.2177074074099323,0.10201339647913699,34.08965079207904,-5.085169188889324,0.3432648065482198,34.20001346832257,0.062049473296156066,-0.06204913439853499,2.869274952599312,7.174844087283077,-0.45178422469931867,303.27866716600454,0.0,-66.88532983112361,186.85060977394164,-78.42144054783137,176.45778414072828,-43.062041742003295,-54.19385144718239,-157.25240651876177,146.02626064724274,-41.44076460328353,-109.83734524726965,-19.20537762196649,-67.57228404056687,12.306737147403485,19.08537011855349,-303.27866716600454,0.0,66.88532983112361,-186.85060977394164,78.42144054783137,-176.45778414072828,43.062041742003295,54.19385144718239,157.25240651876177,-146.02626064724274,41.44076460328353,109.83734524726965,19.20537762196649,67.57228404056687,-12.306737147403485,-19.08537011855349
Finger2,28.683424415088748,35.227184940833006,3.69644199658595,37.37012802707622,28.683424170564678,2.8851339346147142,0.19337322862440942,38.616012820868015,-4.871548793783944,-0.05766326513684383,35.22718456713177,-1.0714709129239282,1.0714713187693974,30.35014990248895,3.2655349664189757,-0.5576515783201401,297.55540828703005,0.0,-72.95086198152856,182.99721936247485,-91.34811963331325,172.20661784832225,-47.40195819707074,-58.960559345310585,-154.06886381294947,143.48654447408057,-42.36898093181972,-107.11326962244333,-18.137754035372794,-78.77187430371328,18.382710932072893,1.3214271451873785,-297.55540828703005,0.0,72.95086198152856,-182.99721936247485,91.34811963331325,-172.20661784832225,47.40195819707074,58.960559345310585,154.06886381294947,-143.48654447408057,42.36898093181972,107.11326962244333,18.137754035372794,78.77187430371328,-18.382710932072893,-1.3214271451873785
Finger2,2.2634211388072267,33.636290605135834,6.49417375027563,35.40816377833042,2.217962585836659,4.360321622990085,-0.06079813576976534,36.61622029552597,-7.064847366970653,0.15733544517141063,32.99888068008366,1.3068495410031744,-0.13587899062521558,-2.5238770734271156,7.4833075740329775,-0.3661662921443365,466.92015597597356,0.0,34.7554461028553,305.3453453498106,-51.90270679051761,291.47319181438286,-108.77237813040828,7.7721623384406335,-111.16842072862823,282.85138102546614,-157.58149176060437,-31.40403402047003,-86.48825011785846,-46.35647381051151,-12.149503599546614,-32.393860658359316,-233.43308837359544,233.48706760237815,-157.7875104653102,-121.71464291528183,-96.73214100398458,-134.97363060575555,31.774755028565757,-48.531179629397734,-49.41829265187073,-113.23751676395824,41.909902880185754,-37.938961342670105,18.140614579909236,-11.82440859988536,14.535919752033065,1.510402901463566,-466.92015597597356,0.0,-34.7554461028553,-305.3453453498106,51.90270679051761,-291.47319181438286,108.77237813040828,-7.7721623384406335,111.16842072862823,-282.85138102546614,157.58149176060437,31.40403402047003,86.48825011785846,46.35647381051151,12.149503599546614,32.393860658359316,233.43308837359544,-233.48706760237815,157.7875104653102,121.71464291528183,96.73214100398458,134.97363060575555,-31.774755028565757,48.531179629397734,49.41829265187073,113.23751676395824,-41.909902880185754,37.938961342670105,-18.140614579909236,11.82440859988536,-14.535919752033065,-1.510402901463566
Finger2,22.040484520322874,31.790796620491356,5.342852433832636,31.024440379688336,22.085520468729513,3.3056062258066845,-0.028508738354844354,30.3907492623703,-3.180132527830949,-0.17244312649071425,32.99888068008366,1.3068495410031744,-0.13587899062521558,23.138465614517145,3.638040150571584,-0.5625418067882286,238.03673465904063,0.0,-61.616521224822044,145.39221898884412,-75.56019143072967,136.0999697577626,-34.781081105736426,-50.0617137046087,-126.10257834157277,111.93415631746788,-28.45330803554183,-87.2667577834245,-9.997391416189828,-63.358750647728975,13.663069503834482,5.902691482369079,-238.03673465904063,0.0,61.616521224822044,-145.39221898884412,75.56019143072967,-136.0999697577626,34.781081105736426,50.0617137046087,126.10257834157277,-111.93415631746788,28.45330803554183,87.2667577834245,9.997391416189828,63.358750647728975,-13.663069503834482,-5.902691482369079
Finger2,20.125658698937514,23.82193438280433,3.406863030515688,24.45662069543993,20.12565842506416,1.8481378555297852,1.8481378555297852,24.362344987503516,-6.285104003615089,0.2580575085170782,23.82193413823815,-0.3173427688411721,0.31734302292770167,21.55040776783313,2.6393663360877113,-0.7873143370346991,136.08151258376702,0.0,-44.65131872016023,78.9328607872368,-71.12085955811362,64.9606530256534,-7.812001229123183,-39.527944207028355,-136.08151258376702,0.0,44.65131872016023,-78.9328607872368,71.12085955811362,-64.9606530256534,7.812001229123183,39.527944207028355
Finger2,29.76984453931414,33.50168549042042,3.803058922640126,33.77561067078574,29.76984413216014,1.8659207820892334,1.8659205436706543,34.2229744171935,-2.8415057351457875,-1.2241460220040032,33.05196522858381,1.7019180822675821,-0.35218028641405397,28.857263797152257,5.29774481850562,-0.887651959777445,273.99034655627423,0.0,-59.380500325346404,168.2692417075498,-85.09721641069402,158.5511555019842,-44.31643085215139,-48.2731731603929,-143.1255697348074,130.86477682146682,-41.592949392883696,-93.68215574575402,-15.425585767176784,-74.00321546200834,14.957298465091554,-4.242179105269422,-273.99034655627423,0.0,59.380500325346404,-168.2692417075498,85.09721641069402,-158.5511555019842,44.31643085215139,48.2731731603929,143.1255697348074,-130.86477682146682,41.592949392883696,93.68215574575402,15.425585767176784,74.00321546200834,-14.957298465091554,4.242179105269422
Finger2,30.56091998261447,30.62225772045469,26.444916819451358,28.14009476844292,30.560919560208507,0.030669212341308594,0.030668973922729492,28.140094377437322,-0.8475887775421143,-0.8475890159606934,33.05196522858381,1.7019180822675821,-0.35218028641405397,30.727443974706034,-0.16563015562360306,-0.43912899867096655,115.76818929096345,0.0,-58.70101475105739,57.06717453990605,-115.76818929096345,0.0,58.70101475105739,-57.06717453990605
Finger2,29.221119181413453,34.2051516504638,33.227638336407836,36.41848285992879,29.221118783317518,2.492016553878784,2.492016315460205,36.418482352722975,-1.5954217910766602,-1.5954217910766602,34.20515128627903,-1.1066649865221052,1.1066653839067726,29.272604402471757,5.849223364152579,-1.2066465898778205,168.6558582502753,0.0,-60.88369601059678,85.5219170964003,-98.03222373988271,70.62363451039258,12.510306643482416,-34.018404714836905,-168.6558582502753,0.0,60.88369601059678,-85.5219170964003,98.03222373988271,-70.62363451039258,-12.510306643482416,34.018404714836905
Finger2,24.854992684763012,25.331413187337184,20.281568104250645,23.204352560553666,24.85499234172461,0.23821020126342773,0.23821043968200684,23.316147924173436,-0.40469020336172434,-0.018172696323151882,34.20515128627903,-1.1066649865221052,1.1066653839067726,25.170600662598474,-0.7199798284307235,0.012397093757796185,222.84008631928012,0.0,-69.48639007090004,121.35235029208263,-86.31104511548341,122.58270730984496,-3.26169854117612,-48.5549523574989,-112.36385089317201,110.4762354261081,-20.636801381771193,-78.32288747249885,-10.21885641667295,-62.87561838247626,10.721295211073642,8.324727290980185,-222.84008631928012,0.0,69.48639007090004,-121.35235029208263,86.31104511548341,-122.58270730984496,3.26169854117612,48.5549523574989,112.36385089317201,-110.4762354261081,20.636801381771193,78.32288747249885,10.21885641667295,62.87561838247626,-10.721295211073642,-8.324727290980185
Finger2,3.9461808617131093,4.723760241280908,3.045603441795122,4.723760241280908,3.946180808074929,0.38878971338272095,0.38878971338272095,4.723760162019692,-1.949789342973851,0.5553554882993517,34.20515128627903,-1.1066649865221052,1.1066653839067726,4.110317053162051,0.38636005830505127,-0.26532555685690973,15.044870807584987,0.0,-7.275507124508958,7.76936368307603,-15.044870807584987,0.0,7.275507124508958,-7.76936368307603
Finger2,28.98020482602525,32.37919175546962,5.034657579876698,31.82829898283713,28.980204429395936,1.699493646621704,1.699493646621704,32.44402350538292,-5.33342238677578,-0.40651295079928573,32.02618150321351,1.159646358849045,-0.2696514256495419,28.47003648515245,4.483208103420921,-0.7971520475405498,259.25639624110875,0.0,-61.78444483132887,160.10664863649305,-86.11284818789599,147.9436570585759,-41.227314604669246,-52.95915276296033,-136.13332000704744,123.12307623406133,-38.52652253053894,-94.61586484750305,-11.810337051528435,-71.74451804669431,17.479876702256988,-1.838142570086731,-259.25639624110875,0.0,61.78444483132887,-160.10664863649305,86.11284818789599,-147.9436570585759,41.227314604669246,52.95915276296033,136.13332000704744,-123.12307623406133,38.52652253053894,94.61586484750305,11.810337051528435,71.74451804669431,-17.479876702256988,1.838142570086731
Finger2,26.145253608503673,27.449982112706163,26.322533637147846,29.896287530613947,26.21048978450891,0.010676472509430823,0.12691405245381304,29.896287200213067,-2.0517254190701237,0.1324243160385663,32.02618150321351,1.159646358849045,-0.2696514256495419,25.54619945725969,1.4397564770486895,-0.19977648661721048,190.87862219213517,0.0,-75.1834828419403,110.82840195482885,-108.90786440043587,81.9707577916993,-1.920537554392972,-72.00826496414095,-190.87862219213517,0.0,75.1834828419403,-110.82840195482885,108.90786440043587,-81.9707577916993,1.920537554392972,72.00826496414095
Finger2,31.13890660966719,33.897574268779124,5.855335000277147,32.99824279447936,31.13890618244277,1.3793339729309082,1.3793339729309082,33.51744278408507,-2.711090640932426,-0.5940469143228704,33.89757393879671,0.44966620289523007,-0.449665886402812,31.374591597736455,2.6349377619059737,-0.7443389665761746,225.38393494044976,0.0,-68.865439176779,140.24572970530312,-78.78224190440613,126.73479080346445,-37.48330026552661,-58.04746457971143,-118.7677888721033,106.61614606834648,-26.74619752407859,-88.83533356117998,-7.967001931361153,-62.70603490142522,17.161846308916857,2.027748695809244,-225.38393494044976,0.0,68.865439176779,-140.24572970530312,78.78224190440613,-126.73479080346445,37.48330026552661,58.04746457971143,118.7677888721033,-106.61614606834648,26.74619752407859,88.83533356117998,7.967001931361153,62.70603490142522,-17.161846308916857,-2.027748695809244
Finger2,5.0853128692785114,32.00774488043412,31.527905215381068,34.764612297545206,4.535997753796011,4.356636850321848,0.2297606114597599,34.76461181314879,-1.6183531284332275,-1.6183533668518066,32.007744532788024,-1.3784330974881982,1.3784334864872676,2.436119512263957,7.884793835992838,-0.49409731909106114,204.981800635903,0.0,6.084237249526208,123.98069199902906,-50.64201158009858,115.14313733996818,-29.399896745397044,9.23477741156875,-108.94911706171976,96.03268357418324,-42.82269016424026,-29.758310597750576,-6.194020278248431,-36.16844565662132,-23.588476380169823,-21.46833107992741,-204.981800635903,0.0,-6.084237249526208,-123.98069199902906,50.64201158009858,-115.14313733996818,29.399896745397044,-9.23477741156875,108.94911706171976,-96.03268357418324,42.82269016424026,29.758310597750576,6.194020278248431,36.16844565662132,23.588476380169823,21.46833107992741
Finger2,5.354907791349799,28.158020054900586,2.984653121151536,33.64204215491767,4.554747823272962,1.7168672931750848,0.658158022788875,33.59474379633942,-2.8839794744910847,-0.13430265257184715,28.10980935029272,-0.18576890416403558,0.39140701729303373,1.3673865344334502,7.078227081590008,-0.4226538378964664,353.14460047155853,0.0,2.2610267253730605,264.97866137381163,-36.166391764136705,225.80359828349805,-149.1575503132753,-23.236350423505215,-93.52341802818334,211.07827849801765,-142.9241921132403,-57.52165118152253,-70.38494098075216,-44.61974169997369,17.448241756259442,-40.9775163763444,-174.6940630421829,178.45053742937563,-130.91673979712598,-124.86192518983621,-80.9546841080504,-105.99076249033638,66.00587040707478,-54.04750676278942,-36.38421545583472,-88.61874173664506,53.22789239110828,-31.131839740284327,19.8300542694122,-10.52070798226459,12.181298027426717,13.785732211165545,-353.14460047155853,0.0,-2.2610267253730605,-264.97866137381163,36.166391764136705,-225.80359828349805,149.1575503132753,23.236350423505215,93.52341802818334,-211.07827849801765,142.9241921132403,57.52165118152253,70.38494098075216,44.61974169997369,-17.448241756259442,40.9775163763444,174.6940630421829,-178.45053742937563,130.91673979712598,124.86192518983621,80.9546841080504,105.99076249033638,-66.00587040707478,54.04750676278942,36.38421545583472,88.61874173664506,-53.22789239110828,31.131839740284327,-19.8300542694122,10.52070798226459,-12.181298027426717,-13.785732211165545
Finger2,9.242238916214783,68.76396360891118,8.590655739797782,73.46743921289139,10.585097713820119,5.257050839584679,0.03668758347012968,77.6102177415096,-14.781176921403627,0.43143642696275464,28.10980935029272,-0.18576890416403558,0.39140701729303373,-1.9204393046569521,13.756160112541764,-0.7721560081087038,691.8261152418283,0.0,69.2209939697694,503.6344658561617,-96.26453292616551,459.2623278803178,-280.39795560601334,-2.3192174890370545,-177.0997201471548,417.9502001433579,-297.85743417452517,-69.8956197872259,-168.50262732675452,-118.616683435456,14.613864350902418,-117.19912525260338,-342.1504240703526,349.6756911714757,-282.75566786054605,-208.03061461104764,-159.9123934941383,-238.0405182106948,111.85015372495778,-123.79066758677834,-75.79977607300532,-176.33359147663117,101.61917809845035,-66.74650250974739,60.66189931708702,-12.338476278552918,15.768057852621396,21.802533655208485,-691.8261152418283,0.0,-69.2209939697694,-503.6344658561617,96.26453292616551,-459.2623278803178,280.39795560601334,2.3192174890370545,177.0997201471548,-417.9502001433579,297.85743417452517,69.8956197872259,168.50262732675452,118.616683435456,-14.613864350902418,117.19912525260338,342.1504240703526,-349.6756911714757,282.75566786054605,208.03061461104764,159.9123934941383,238.0405182106948,-111.85015372495778,123.79066758677834,75.79977607300532,176.33359147663117,-101.61917809845035,66.74650250974739,-60.66189931708702,12.338476278552918,-15.768057852621396,-21.802533655208485
Finger2,41.80543143336581,45.566359468849164,6.816327987276153,45.74519745173836,41.805430859864515,1.880465030670166,1.8804645538330078,46.71861226340846,-5.794964548180644,-0.49662270853903934,44.877050709899635,2.277035229727005,-0.40011190239110306,41.108204889538115,5.0281068050306885,-0.7530631303435982,444.10356426370436,0.0,-117.14724621237872,259.94230308912995,-138.4573807821966,257.0101100362396,-50.0372060302822,-81.77733302736256,-231.4698628742656,212.63370138943873,-48.987814848707075,-153.51781248382653,-25.54024716197401,-120.29827365787516,21.656326677752595,7.779884832611401,-444.10356426370436,0.0,117.14724621237872,-259.94230308912995,138.4573807821966,-257.0101100362396,50.0372060302822,81.77733302736256,231.4698628742656,-212.63370138943873,48.987814848707075,153.51781248382653,25.54024716197401,120.29827365787516,-21.656326677752595,-7.779884832611401
Finger2,5.698792596519842,6.542645755490675,5.103034173066325,6.27989186218508,5.698792518731262,0.42192667722702026,0.42192667722702026,6.279891789465211,-0.6509730287463356,0.031272109420648064,44.877050709899635,2.277035229727005,-0.40011190239110306,5.820424380993842,0.6951648031984305,-0.22564049170295064,29.28455524406924,0.0,-11.425816612536455,14.90860038045247,-17.081718631771245,12.202836612297995,2.173118251318778,-6.903881705135368,-29.28455524406924,0.0,11.425816612536455,-14.90860038045247,17.081718631771245,-12.202836612297995,-2.173118251318778,6.903881705135368
Finger2,39.54440430041064,54.24118181758037,1.430837416917374,54.8427056523547,39.618426882496465,2.027792983454219,0.9405947813516775,54.59883977379977,-1.0167572749040659,-1.9158675701921553,54.24118126915337,-0.3007610751969878,0.30076163264703837,35.31550522960586,10.636715824676529,-1.3736316877128072,444.64172846659613,0.0,-86.86010701549647,266.8840863468489,-139.19167575392612,254.03078867932555,-56.49107134868504,-68.45684432496596,-226.06600673303154,218.5757217335646,-71.49784748919922,-139.8798770271592,-27.96478194629404,-112.07449629845104,13.748670344387591,-6.560074687300883,-444.64172846659613,0.0,86.86010701549647,-266.8840863468489,139.19167575392612,-254.03078867932555,56.49107134868504,68.45684432496596,226.06600673303154,-218.5757217335646,71.49784748919922,139.8798770271592,27.96478194629404,112.07449629845104,-13.748670344387591,6.560074687300883
Finger2,3.3099017743668138,34.81183157255567,7.3029350091264496,34.696241396755,1.8463507433012296,3.884197986021917,-0.05922696325750465,36.04186847701216,-7.282305883118518,0.3780313626379215,34.244029732124744,1.6861316553466281,-0.2972317946348966,-3.101661178960427,6.7685322308812985,-0.3029379672644441,492.26678975286006,0.0,11.904164530627913,306.8181885131264,-60.71055692149894,309.5114141814579,-93.3211969569152,-1.3925600437562498,-127.94146837511903,295.0249278336923,-137.34094249869588,-45.39984538381431,-91.47164062420505,-63.78454839486918,-3.4609227874025903,-20.990763947099254,-246.13631510233373,246.13047465052637,-145.7417154912732,-128.2780777828975,-98.28436697146185,-145.07979178179235,25.728510249913896,-39.140366991516586,-48.88861273135858,-123.77395357606825,39.32886174596338,-27.052629160238347,23.655280714898026,-6.049920775328886,8.231747419145618,0.4271288284986472,-492.26678975286006,0.0,-11.904164530627913,-306.8181885131264,60.71055692149894,-309.5114141814579,93.3211969569152,1.3925600437562498,127.94146837511903,-295.0249278336923,137.34094249869588,45.39984538381431,91.47164062420505,63.78454839486918,3.4609227874025903,20.990763947099254,246.13631510233373,-246.13047465052637,145.7417154912732,128.2780777828975,98.28436697146185,145.07979178179235,-25.728510249913896,39.140366991516586,48.88861273135858,123.77395357606825,-39.32886174596338,27.052629160238347,-23.655280714898026,6.049920775328886,-8.231747419145618,-0.4271288284986472
Finger2,26.339614624171123,29.19545557727473,25.25391082364291,29.793445029189975,26.339614263406997,1.4279210567474365,1.4279208183288574,29.793444611983645,-2.2697668075561523,-2.2697670459747314,34.244029732124744,1.6861316553466281,-0.2972317946348966,26.195630827567484,5.280619305833682,-1.848843810925004,110.58242605427874,0.0,-56.1330596533611,54.44936640091764,-110.58242605427874,0.0,56.1330596533611,-54.44936640091764
Finger2,5.4171623458149085,43.63042767184869,20.441809026831674,44.653558103761846,4.947976974222911,6.674958457391057,-0.15070929710959646,45.41087941033253,-6.2141977761857845,0.22265680999296933,34.244029732124744,1.6861316553466281,-0.2972317946348966,1.5928700428975162,10.444335629372688,-0.7031171392083149,396.8817858778002,0.0,-63.98279194038064,252.90413799430058,-112.03739602747015,234.48577335547628,-76.57351131565842,-70.29872088843446,-194.907535667045,201.9742502107552,-76.93519409789678,-123.98936631825086,-39.57823768843127,-100.46668317319076,23.968487644133763,-0.7460083184081299,-396.8817858778002,0.0,63.98279194038064,-252.90413799430058,112.03739602747015,-234.48577335547628,76.57351131565842,70.29872088843446,194.907535667045,-201.9742502107552,76.93519409789678,123.98936631825086,39.57823768843127,100.46668317319076,-23.968487644133763,0.7460083184081299
Finger2,9.158838076544747,35.87439168392723,5.006401628259036,37.5646015992209,8.718303851852113,4.003955096598389,0.08372685926557466,38.15571501286506,-11.54432883913266,0.7536906830970089,34.90549808523207,1.8506553188299222,-0.14950879044863896,3.727477061434257,7.8777207215592,-0.40480340272042525,571.4520736427505,0.0,14.0341373805661,368.5981541713633,-61.68674006361345,353.33264162341413,-124.99037979559773,4.132550010704904,-144.20779236860045,342.983411782943,-174.6028271510807,-53.62253152134165,-97.20779757032776,-57.67359673210288,-16.576132487608287,-30.43332971618957,-287.85772362381556,283.594350018935,-173.4486790010163,-158.2338679909405,-114.28769655054644,-161.873421132324,35.6408094533716,-51.64308760948292,-55.12568815912749,-141.25391630151046,50.08867242869967,-32.756356196450525,20.086094252734227,-11.20026864028641,14.113235612688646,0.43277865514594893,-571.4520736427505,0.0,-14.0341373805661,-368.5981541713633,61.68674006361345,-353.33264162341413,124.99037979559773,-4.132550010704904,144.20779236860045,-342.983411782943,174.6028271510807,53.62253152134165,97.20779757032776,57.67359673210288,16.576132487608287,30.43332971618957,287.85772362381556,-283.594350018935,173.4486790010163,158.2338679909405,114.28769655054644,161.873421132324,-35.6408094533716,51.64308760948292,55.12568815912749,141.25391630151046,-50.08867242869967,32.756356196450525,-20.086094252734227,11.20026864028641,-14.113235612688646,-0.43277865514594893
Finger2,6.978527477279727,8.731921416766237,6.691014976681379,8.34778003565475,6.97852738286943,0.8766970634460449,0.8766970634460449,8.347779918305823,-0.8283824324607849,-0.8283824324607849,8.73192133328845,0.19207080328783377,-0.1920707255721652,7.08815192197099,1.767206278718561,-0.46578072613507615,39.13940068386977,0.0,-13.941171429479407,20.467329495136283,-22.059699231448786,17.079701452420988,1.5923697363125022,-8.66178575300598,-39.13940068386977,0.0,13.941171429479407,-20.467329495136283,22.059699231448786,-17.079701452420988,-1.5923697363125022,8.66178575300598
Finger2,28.902892878567588,29.773256528053253,31.818217392912448,32.12166840226022,28.902892480033707,0.4351820945739746,0.4351820945739746,32.26246987393195,1.8076554162208822,-0.6675578326140226,8.73192133328845,0.19207080328783377,-0.1920707255721652,28.37589884616736,2.7536075296169997,-0.4060609861693507,189.2261520657027,0.0,-81.32191818876447,99.59128490965185,-93.80970535283782,95.41644671286488,-5.781579556814009,-51.75554964044707,-189.2261520657027,0.0,81.32191818876447,-99.59128490965185,93.80970535283782,-95.41644671286488,5.781579556814009,51.75554964044707
Finger2,34.24179837595732,37.70834660035923,3.4682951132546016,34.53025515382398,34.24179790667051,1.7332744598388672,1.7332744598388672,35.610751591891265,-5.033953491665557,-0.3320690259064385,36.76544309250929,2.238943219308112,-0.29558532074557675,33.59876952004237,3.8296206652390055,-0.4297110120505394,469.9350357554225,0.0,-127.88004479057241,287.55251915821054,-139.59444615655312,274.9328302504116,-73.31568066631874,-100.8727406409488,-244.43815697173076,225.49687878369173,-57.575937032160056,-176.95034337640308,-30.494673278680835,-126.12120543694687,34.2130170129586,14.479525982215634,-469.9350357554225,0.0,127.88004479057241,-287.55251915821054,139.59444615655312,-274.9328302504116,73.31568066631874,100.8727406409488,244.43815697173076,-225.49687878369173,57.575937032160056,176.95034337640308,30.494673278680835,126.12120543694687,-34.2130170129586,-14.479525982215634
Finger2,4.6470355337177995,21.063091138356793,5.403754588597777,21.063091138356793,4.4076114880323445,9.389186786333909,-1.2525173955519477,21.488529439751428,-4.768855074497154,-0.2448498015834204,36.76544309250929,2.238943219308112,-0.29558532074557675,4.522668684079797,10.169074881400832,-1.7135047362674491,89.28032234286523,0.0,-22.722046114575424,54.40952196372534,-46.69611822423646,42.584204118628776,-7.713403739488882,-24.62181281036061,-89.28032234286523,0.0,22.722046114575424,-54.40952196372534,46.69611822423646,-42.584204118628776,7.713403739488882,24.62181281036061
Finger2,33.73740631803767,37.74035272417124,32.45880199119894,34.89619432937464,33.72757779722775,2.2230932853093464,-0.2940751900704299,34.8961938440991,-1.218695878982544,-1.218695878982544,36.76544309250929,2.238943219308112,-0.29558532074557675,33.511812564580225,3.222527869241219,-0.6894905247924683,211.48681489763095,0.0,-90.09115229252856,111.85741856641525,-105.66054889744396,105.82626600018699,-6.1968696689712885,-58.48449989514791,-211.48681489763095,0.0,90.09115229252856,-111.85741856641525,105.66054889744396,-105.82626600018699,6.1968696689712885,58.48449989514791
Finger2,29.67346357211241,37.66604229965219,24.955061643898027,39.80270576790533,29.673463273787036,0.4799967566948453,1.7581463765212106,40.07449837189874,-5.562887840958069,0.4328500441333176,37.66604190162518,-1.068331067644408,1.0683314977214309,29.59562245500277,5.058671530907958,-0.7421494824800199,297.07428307774364,0.0,-66.04340835899696,180.40046984631095,-94.7403356564372,163.25104514328933,-40.93096322746249,-47.74226475619051,-162.58155869811972,134.49272437962392,-32.70141100130837,-94.3288787834033,-0.6694864451696105,-68.45943238672538,-3.5776763552138284,-2.488954814480792,-297.07428307774364,0.0,66.04340835899696,-180.40046984631095,94.7403356564372,-163.25104514328933,40.93096322746249,47.74226475619051,162.58155869811972,-134.49272437962392,32.70141100130837,94.3288787834033,0.6694864451696105,68.45943238672538,3.5776763552138284,2.488954814480792
Finger2,32.24938730732102,33.8722651614785,40.61516318100956,40.724562413571974,32.46319021662234,0.9811745264589149,-0.1254539178983336,40.72456185046175,-0.05469918251037598,-0.05469918251037598,33.87226475423293,-3.4261477924785595,3.426148302508693,33.315464101685706,-0.37957896034404826,0.1375996980538794,355.28950207988305,0.0,-106.92664781933576,188.22655353549243,-133.3252325976991,195.01299776134346,4.885926907649903,-68.1228412630183,-174.62228775713632,180.66721432274676,-33.64605598328336,-116.2416675387008,-20.390710004207122,-93.22691559185455,8.665155661188443,13.518525018072964,-355.28950207988305,0.0,106.92664781933576,-188.22655353549243,133.3252325976991,-195.01299776134346,-4.885926907649903,68.1228412630183,174.62228775713632,-180.66721432274676,33.64605598328336,116.2416675387008,20.390710004207122,93.22691559185455,-8.665155661188443,-13.518525018072964
Finger2,5.984949053025971,78.58197824198679,5.606392080273265,67.96127282812151,7.023255622288957,2.569552460504781,0.8232502382554401,70.08210404137013,-10.317127550691438,-0.1406324059837054,77.69337685202521,3.464400172191631,-1.0531728975454513,-9.94334826681063,16.722044101726283,-0.8447523928854554,891.7830034652657,0.0,98.0647871193167,617.3195975482054,-113.79542116162183,542.2300524288746,-254.81375593872954,17.045328882424045,-220.77427882744462,538.40161815842,-336.28058604154273,-58.386170875246236,-139.15505576123252,-92.02874095935334,-31.515668904377808,-69.26497982528677,-447.64893976460695,444.13406370065877,-334.7722909803449,-234.2271657505224,-164.8139374224836,-254.43040057119947,69.12656272156076,-111.74931385676463,-90.75267839381303,-221.82815898232985,91.54813535821408,-80.90361852238675,31.893432655561604,-7.5637126511938675,21.87401786362118,1.3510062090880055,-891.7830034652657,0.0,-98.0647871193167,-617.3195975482054,113.79542116162183,-542.2300524288746,254.81375593872954,-17.045328882424045,220.77427882744462,-538.40161815842,336.28058604154273,58.386170875246236,139.15505576123252,92.02874095935334,31.515668904377808,69.26497982528677,447.64893976460695,-444.13406370065877,334.7722909803449,234.2271657505224,164.8139374224836,254.43040057119947,-69.12656272156076,111.74931385676463,90.75267839381303,221.82815898232985,-91.54813535821408,80.90361852238675,-31.893432655561604,7.5637126511938675,-21.87401786362118,-1.3510062090880055
Finger2,21.806658905495343,31.663569493591336,7.978899471699441,31.663569493591336,21.9431670657884,4.133031307246597,-0.3127999789002587,31.24430672718244,-2.0312321650236527,-1.8613831475119937,77.69337685202521,3.464400172191631,-1.0531728975454513,20.708260697480156,8.178996266274083,-1.6863537295325948,163.2585572937336,0.0,-58.86315836272868,92.26904903964498,-84.4279672653737,78.83059002835991,-7.841081774271295,-47.48999962866513,-163.2585572937336,0.0,58.86315836272868,-92.26904903964498,84.4279672653737,-78.83059002835991,7.841081774271295,47.48999962866513
Finger2,15.445072004673449,30.725946552563272,26.523375993060125,30.876415681663133,15.445071882611757,2.9422917195112746,2.349072808473778,30.876415249704984,-2.1765196323394775,-2.1765193939208984,30.725946243799157,-0.07523409651344082,0.07523440753462296,14.221490776147306,11.013730498357091,-1.7013950021554223,156.95817715590658,0.0,-56.65152718652568,87.23137475883361,-77.04743423889985,79.91074291700673,-10.183940519933756,-41.055986052752374,-156.95817715590658,0.0,56.65152718652568,-87.23137475883361,77.04743423889985,-79.91074291700673,10.183940519933756,41.055986052752374
Finger2,4.5460314330247815,34.30792588764039,18.016959379666698,35.90726899261242,4.608224178927401,8.244659166992932,-0.45099964439663864,36.23325395438546,-6.269108408599891,0.029449470310126458,30.725946243799157,-0.07523409651344082,0.07523440753462296,2.505583973606491,11.541459103366577,-1.0883389084816617,234.2449104953422,0.0,-11.629212846094276,148.17759402671177,-65.37733964959185,140.47769500501482,-42.524422262936355,-23.169255489645302,-114.21409620016395,120.03081429517826,-61.71248969740541,-66.25894312168775,-26.2635988048509,-62.36942798053011,15.338798352163845,-10.82113838978076,-234.2449104953422,0.0,11.629212846094276,-148.17759402671177,65.37733964959185,-140.47769500501482,42.524422262936355,23.169255489645302,114.21409620016395,-120.03081429517826,61.71248969740541,66.25894312168775,26.2635988048509,62.36942798053011,-15.338798352163845,10.82113838978076
Finger2,8.035070547216996,10.255544254702428,8.92564869516643,10.255544254702428,8.03507043875014,1.110236942768097,1.110236942768097,10.255544111364681,-0.6649476885795593,-0.6649476885795593,30.725946243799157,-0.07523409651344082,0.07523440753462296,8.035070535677097,3.9956581485488982,-1.7751845271885571,27.216263497085855,0.0,-16.960719242383426,10.255544254702428,-27.216263497085855,0.0,16.960719242383426,-10.255544254702428
Finger2,9.187131729148394,92.00501750118144,21.263271304373745,90.07552741683428,6.720848733035325,22.873214826905837,-1.0809141424948194,91.808517382173,-18.129245379305388,0.032320077262880886,92.00501660042625,0.9647463305982455,-0.9647454587853872,1.922069928275448,30.921326678700666,-2.698377512490879,698.4933786323832,0.0,-65.93516534545648,441.317700775258,-164.21639008119575,425.6030478444225,-141.4033231398261,-64.26032604599625,-346.8473282393232,351.6460503930599,-156.65707673769816,-198.02710235488962,-78.75571960509933,-171.27254390991942,29.84725406428405,-30.028864521720507,-698.4933786323832,0.0,65.93516534545648,-441.317700775258,164.21639008119575,-425.6030478444225,141.4033231398261,64.26032604599625,346.8473282393232,-351.6460503930599,156.65707673769816,198.02710235488962,78.75571960509933,171.27254390991942,-29.84725406428405,30.028864521720507
Finger2,104.64644354828441,111.3452662532655,94.05969143406435,100.96962536125497,104.64644264823505,8.845057720582872,-2.747822944542577,100.96962395731269,-3.4549665451049805,-3.4549665451049805,92.00501660042625,0.9647463305982455,-0.9647454587853872,105.25794191174452,7.47426378531668,-2.642254807964804,521.7647042255237,0.0,-205.61743362029867,261.0491784648326,-310.05140123561426,211.71330298990938,49.002222770781685,-118.2565648912154,-521.7647042255237,0.0,205.61743362029867,-261.0491784648326,310.05140123561426,-211.71330298990938,-49.002222770781685,118.2565648912154
Finger2,10.155239642435152,42.012067751752305,14.62186471753189,43.20478336719599,9.2919594088483,5.51297930925773,-0.09971402837880916,43.73673993240293,-4.027219327295427,-0.8447841370272045,41.87598687379116,-0.03688616657757393,0.1210323282547563,4.97970252220631,9.184958905835884,-0.5516860997302793,497.7795454398572,0.0,-53.70924998657791,328.11571700390346,-122.64381479094797,303.86297631508876,-119.83065350353431,-72.65737635381046,-247.7145175909291,250.06502784892814,-115.87402090455885,-159.53951146914878,-56.14845872415964,-129.00989597103643,40.077794613390765,-10.52755059203976,-497.7795454398572,0.0,53.70924998657791,-328.11571700390346,122.64381479094797,-303.86297631508876,119.83065350353431,72.65737635381046,247.7145175909291,-250.06502784892814,115.87402090455885,159.53951146914878,56.14845872415964,129.00989597103643,-40.077794613390765,10.52755059203976
Finger2,39.85952828967689,40.86693536112325,43.19810376450394,45.348440659375704,39.859527855233694,-1.9764952748469113,1.2400995098751082,45.34844002994451,-1.0751681327819824,-1.0751681327819824,41.87598687379116,-0.03688616657757393,0.1210323282547563,39.08585301363618,1.3160117598122838,-0.0064414314716856325,208.3961401130107,0.0,-78.65567411326099,100.59735723316402,-123.92456741530407,84.47157269770662,23.32721018214005,-36.464977420203404,-208.3961401130107,0.0,78.65567411326099,-100.59735723316402,123.92456741530407,-84.47157269770662,-23.32721018214005,36.464977420203404
Finger2,12.910542358574565,19.105030648069242,9.40202302044313,19.760702990203647,12.910542216097312,-0.32164154040776793,1.709442875658027,19.930732534721983,-2.194111885715188,-0.4573781812870905,41.87598687379116,-0.03688616657757393,0.1210323282547563,12.060718808359567,5.081929103560213,-0.9305127685004368,106.46888102034907,0.0,-36.173267568750475,61.92630129769815,-59.20692777884963,47.261953241499434,-2.7193735188485206,-33.98044712692558,-106.46888102034907,0.0,36.173267568750475,-61.92630129769815,59.20692777884963,-47.261953241499434,2.7193735188485206,33.98044712692558
Finger2,6.75813787806336,27.94816105139218,11.456834569875834,27.94816105139218,5.896480570469464,6.479922899964521,-0.20086765512962046,28.440603185284807,-3.641045123670338,-0.19106151714783337,41.87598687379116,-0.03688616657757393,0.1210323282547563,4.85238306548753,9.643802764094218,-1.1298048356859578,160.36816066536812,0.0,-12.55973611317767,111.5705376863027,-43.81962830460978,92.32576975482556,-46.56188248140651,-22.919958254140926,-85.66770327735885,74.70045738800927,-38.996341044498664,-51.74975992995874,-6.658066477466704,-37.16106458330587,6.213659968137632,-10.417630735480877,-160.36816066536812,0.0,12.55973611317767,-111.5705376863027,43.81962830460978,-92.32576975482556,46.56188248140651,22.919958254140926,85.66770327735885,-74.70045738800927,38.996341044498664,51.74975992995874,6.658066477466704,37.16106458330587,-6.213659968137632,10.417630735480877
Finger2,8.709739280325575,116.52574070439194,39.23623995719648,110.56102950953263,10.657105958147326,2.028754878700397,1.4453632589143766,111.78997829547524,-26.565950246088676,2.023702207863053,41.87598687379116,-0.03688616657757393,0.1210323282547563,-13.854279342009534,25.608537565967822,-1.610027249114129,817.8046905519249,0.0,-177.0903640731056,482.348196211045,-218.98393323738273,484.1839410134181,-97.16806961540445,-129.0857758544507,-398.09055481250186,419.714135739423,-112.16619394041564,-242.8414128386105,-86.09338620091623,-195.69583736932296,23.929133908828938,22.54297268578985,-817.8046905519249,0.0,177.0903640731056,-482.348196211045,218.98393323738273,-484.1839410134181,97.16806961540445,129.0857758544507,398.09055481250186,-419.714135739423,112.16619394041564,242.8414128386105,86.09338620091623,195.69583736932296,-23.929133908828938,-22.54297268578985
Finger2,10.098889339116635,43.31504767555489,15.386198036338927,43.31504767555489,7.545672600398376,9.082723388969043,0.09307626809660974,44.009745121250006,-10.41934555569864,0.21553239322493312,41.87598687379116,-0.03688616657757393,0.1210323282547563,4.242937403910474,17.75205092321778,-2.3316266192376816,204.573198430536,0.0,-48.02992696003798,121.39565361545009,-102.95388501320755,101.61931341732844,-18.441768602242533,-44.1559379439025,-204.573198430536,0.0,48.02992696003798,-121.39565361545009,102.95388501320755,-101.61931341732844,18.441768602242533,44.1559379439025
Finger2,48.114058904635954,51.09701432474159,58.30620354208559,59.40635764138471,48.114058243008586,1.491478443145752,1.4914779663085938,59.36592444247,3.7269729414280164,-1.3555785618589766,51.0970137306781,-4.15467049717256,4.154671215876249,46.92688130465956,6.038055373352904,-0.661228717727866,395.1155191290595,0.0,-147.35488567858027,235.00129583094167,-223.0932931066422,172.02222602241733,-11.908002724299465,-150.98801916330888,-395.1155191290595,0.0,147.35488567858027,-235.00129583094167,223.0932931066422,-172.02222602241733,11.908002724299465,150.98801916330888
Finger2,5.046171228295743,45.60741413796728,40.4807075241318,44.4327229566533,4.545871389078286,1.6814729287048635,0.46328756633446133,44.43272233776257,-1.9760072231292725,-1.9760074615478516,46.15192345424282,-0.10161826846905342,-0.028166163958253776,-1.8912838274403043,7.74665700583347,-0.3140008386140316,551.6482731413585,0.0,85.71783564742796,368.8371587992168,-42.478079130312956,325.5429942078521,-136.25999857643836,51.004229890588185,-140.96317930681457,321.83895443519094,-181.49682749808855,-0.07233293458065759,-67.02071591801901,-22.704357759535174,-49.5850476705154,-45.47228135629825,-283.6072194981628,268.04105364319565,-197.8840020354835,-107.14204628738133,-96.72754561869351,-121.10582884031805,0.652046653365872,-86.9254039961836,-38.231734937028136,-121.96657534405202,16.627524014136398,-63.711439332928315,-19.00313021059546,-20.473853109650115,49.466526145696065,8.03512379897479,-551.6482731413585,0.0,-85.71783564742796,-368.8371587992168,42.478079130312956,-325.5429942078521,136.25999857643836,-51.004229890588185,140.96317930681457,-321.83895443519094,181.49682749808855,0.07233293458065759,67.02071591801901,22.704357759535174,49.5850476705154,45.47228135629825,283.6072194981628,-268.04105364319565,197.8840020354835,107.14204628738133,96.72754561869351,121.10582884031805,-0.652046653365872,86.9254039961836,38.231734937028136,121.96657534405202,-16.627524014136398,63.711439332928315,19.00313021059546,20.473853109650115,-49.466526145696065,-8.03512379897479
Finger2,45.39058094764917,50.034190773362575,43.381650944194305,44.57923625186382,45.39058051842727,1.7421935829233917,0.289805774087597,44.81828730559698,-2.969912207394941,0.8037831900331298,46.15192345424282,-0.10161826846905342,-0.028166163958253776,46.86157037430695,0.16245190528638886,-0.1745987954364523,315.55399271506127,0.0,-120.02800342540712,187.72851183068457,-182.17573553745643,133.37825717760484,-5.552776293228106,-124.6839513230644,-315.55399271506127,0.0,120.02800342540712,-187.72851183068457,182.17573553745643,-133.37825717760484,5.552776293228106,124.6839513230644
Finger2,32.250887203949574,35.12512685608191,35.67486049899815,37.731808581672915,32.25088688767907,0.5617781395287693,0.43767092249146344,37.73180822492435,1.028474509609623,-1.0284741837151614,46.15192345424282,-0.10161826846905342,-0.028166163958253776,31.56876228451773,2.981773103000762,-0.40680623434310803,211.76482767893359,0.0,-92.03975187942764,110.54301837895443,-105.10782264170442,106.65700503722917,-5.435195737250012,-57.18218294988706,-211.76482767893359,0.0,92.03975187942764,-110.54301837895443,105.10782264170442,-106.65700503722917,5.435195737250012,57.18218294988706
Finger2,6.0228075073219145,44.2077217881944,5.57900908633208,49.04903440136289,5.484324926294022,6.569104608537316,-0.14789139172782484,51.546142213363,-10.998654776157466,0.23658953501783486,43.46665847092538,1.9199345349451278,-0.14607386595542238,-0.6635121593917859,10.785222237756031,-0.5797387220789041,608.9973067567906,0.0,56.987450141759645,422.40650950098006,-50.42421526573415,391.22815161289503,-193.89894226206815,16.337451536486004,-148.9683016679042,369.1283592343974,-235.92805456076266,-49.09424691712337,-130.8205359236291,-64.01928031193108,-4.595635891875414,-66.65177068750461,-310.38558577958804,298.6117209772026,-221.39963911188602,-166.34295597471447,-134.37300297930966,-176.9979432873211,54.15403522555977,-89.57015815625729,-58.742773454809395,-154.53868866758063,65.9471879157177,-55.98194812693626,30.57874258695585,-18.766320323393217,25.24340294741062,4.219318785640066,-608.9973067567906,0.0,-56.987450141759645,-422.40650950098006,50.42421526573415,-391.22815161289503,193.89894226206815,-16.337451536486004,148.9683016679042,-369.1283592343974,235.92805456076266,49.09424691712337,130.8205359236291,64.01928031193108,4.595635891875414,66.65177068750461,310.38558577958804,-298.6117209772026,221.39963911188602,166.34295597471447,134.37300297930966,176.9979432873211,-54.15403522555977,89.57015815625729,58.742773454809395,154.53868866758063,-65.9471879157177,55.98194812693626,-30.57874258695585,18.766320323393217,-25.24340294741062,-4.219318785640066
Finger2,5.6365026175896675,41.92752890440437,3.7779672050610467,44.84703839431377,3.9251834755603454,2.7275333915854674,0.2856814168501707,47.48986946278254,-7.4952661857943355,0.21989436122978123,42.52084699749031,-0.24372790277197964,0.04643837713551946,-1.848688697220524,7.638267367905662,-0.31708429893933676,691.5499281199452,0.0,-54.2829159708456,431.5775294424791,-105.74666103330507,423.28436815309135,-121.43654817654563,-49.849506148245744,-181.59479954073402,413.1483904927528,-180.11763050446223,-107.96627393399322,-109.33169720842169,-90.3850728115206,7.479553790559959,-8.453693827043908,-350.909436616725,340.64049150322023,-164.13770313901585,-218.76417513513508,-119.9049509394927,-210.88923040645034,55.16988481231685,-20.729560544096373,-62.238953876027864,-175.24374093222363,64.44706290417267,-11.368639305107564,30.645221202168248,1.6696457624392451,-3.1185485061728855,-2.82246349674124,-691.5499281199452,0.0,54.2829159708456,-431.5775294424791,105.74666103330507,-423.28436815309135,121.43654817654563,49.849506148245744,181.59479954073402,-413.1483904927528,180.11763050446223,107.96627393399322,109.33169720842169,90.3850728115206,-7.479553790559959,8.453693827043908,350.909436616725,-340.64049150322023,164.13770313901585,218.76417513513508,119.9049509394927,210.88923040645034,-55.16988481231685,20.729560544096373,62.238953876027864,175.24374093222363,-64.44706290417267,11.368639305107564,-30.645221202168248,-1.6696457624392451,3.1185485061728855,2.82246349674124
Finger2,2.8413228575761065,28.23348842341103,9.193271217375699,29.646560307950082,1.2511471290290501,4.441364590890345,0.046465362516507014,30.08477227559498,-5.14440221012859,-0.05780515735484215,27.451503097809848,2.0674456854200116,-0.28910193302515097,-2.1929045968465743,8.025917716013424,-0.4834789435483522,328.50976235018237,0.0,-31.289591996546463,216.9292327592541,-81.39873188741959,198.034229655366,-77.14277405630887,-45.53928502685979,-163.2763378622996,165.23342448788276,-77.96057979873092,-102.47740983150308,-34.75789179306638,-80.51550346773747,21.39990097118065,-7.006485487131684,-328.50976235018237,0.0,31.289591996546463,-216.9292327592541,81.39873188741959,-198.034229655366,77.14277405630887,45.53928502685979,163.2763378622996,-165.23342448788276,77.96057979873092,102.47740983150308,34.75789179306638,80.51550346773747,-21.39990097118065,7.006485487131684
Finger2,20.963899023225487,21.14345167277068,14.741764500356508,15.554899073833516,20.96389884061456,1.5572854372003349,-0.7337545076973129,15.55489889673381,-1.2895509433233485,0.44149187040352444,27.451503097809848,2.0674456854200116,-0.28910193302515097,22.005061370515406,-1.2305144607772007,-0.08498850289254278,108.89828387239504,0.0,-50.50180520819827,57.97246729569545,-56.81419048960423,52.08409338279082,-1.158276806091223,-35.9745180641354,-108.89828387239504,0.0,50.50180520819827,-57.97246729569545,56.81419048960423,-52.08409338279082,1.158276806091223,35.9745180641354
Finger2,31.280277930734062,33.55039418659533,8.140905722702497,33.45584548850235,31.280277500980848,1.1350584030151367,1.1350581645965576,34.30756886631995,-5.931245350273755,-0.21694003152436991,27.451503097809848,2.0674456854200116,-0.28910193302515097,32.30761142527275,1.908987810872219,-1.0515841976347886,170.5478623435361,0.0,-64.83871394273848,95.02617112660081,-94.98725206945596,75.56061027408013,-0.03891905714485944,-53.04496429569221,-170.5478623435361,0.0,64.83871394273848,-95.02617112660081,94.98725206945596,-75.56061027408013,0.03891905714485944,53.04496429569221
Finger2,35.08448657265505,37.18543280865291,32.43753862949108,33.77102848646098,35.084486273318404,3.0933927245010864,-1.0214597232733809,33.77102801803794,-0.6667444705963135,-0.6667447090148926,27.451503097809848,2.0674456854200116,-0.28910193302515097,35.39794350063272,2.061861012445206,-0.7324474045902036,175.6349058438886,0.0,-69.9158580363376,87.33871214368563,-104.70745801079903,70.92744783308956,17.368745867113404,-39.579265642844376,-175.6349058438886,0.0,69.9158580363376,-87.33871214368563,104.70745801079903,-70.92744783308956,-17.368745867113404,39.579265642844376
Finger2,25.35908067387135,27.525986543766695,36.70542475876055,39.301552495424005,25.359080428956645,0.6505552382654969,0.21644891011243317,39.45249101925546,0.5870468266923012,-0.32033024575602553,27.537272115760302,-2.0265471773274157,1.9814040026638082,22.87654459578664,4.367151711287789,-0.3003952888818908,339.67461586324157,0.0,-73.92268569518657,187.81130205248914,-121.9538363988365,189.70862601792604,-10.39456780149979,-51.902613613514134,-167.08307983636166,172.59153602687988,-49.468579246150256,-102.60596176286825,-22.625546181564374,-90.20671759830876,9.256866594011804,0.44697945513371096,-339.67461586324157,0.0,73.92268569518657,-187.81130205248914,121.9538363988365,-189.70862601792604,10.39456780149979,51.902613613514134,167.08307983636166,-172.59153602687988,49.468579246150256,102.60596176286825,22.625546181564374,90.20671759830876,-9.256866594011804,-0.44697945513371096
Finger2,3.634874279395799,3.7501293728941887,27.38036153453966,27.469413735407496,3.6348742292823544,0.057627588510513306,0.05762755870819092,27.631333387201494,1.3008878966655004,-0.17355172697056886,3.3674796103110367,0.2975024923674141,0.6299143276832702,-0.7624071813314401,5.429026647325415,-0.2379424870681408,344.23599880562693,0.0,2.2185469885791385,224.3958522520413,-68.71335785822755,215.81961702103058,-80.37394745469805,-18.004557962221575,-166.2451687469396,177.99083005868732,-95.16633440610856,-84.25522801864406,-49.57444827409098,-82.39037730630875,15.999239474910233,-15.233485413089198,-344.23599880562693,0.0,-2.2185469885791385,-224.3958522520413,68.71335785822755,-215.81961702103058,80.37394745469805,18.004557962221575,166.2451687469396,-177.99083005868732,95.16633440610856,84.25522801864406,49.57444827409098,82.39037730630875,-15.999239474910233,15.233485413089198
