Klasse,minimumSteigungWert,maximumSteigungWert,minimumSenkungWert,maximumSenkungWert,steigungA,steigungB,steigungC,senkungA,senkungB,senkungC,mittelA,mittelB,mittelC,gesamtA,gesamtB,gesamtC,fftRealTeil,fftImgTeil
Finger1,333.0803718173739,424.0471327517733,176.9050487973704,382.1141914467454,651.2503289736001,-41.72480894347905,0.7864501826641899,381.73292926902957,-30.854048246403863,-5.085297940993996,417.8621755092727,27.02429097034974,-8.595860103620566,575.0987053539379,-29.842065846033393,0.5045019342673784,-3060.9299818908285,0.0,38.18427827351681,-1380.7388844328334,976.5284262236207,-1778.3857298083508,-455.67194240858817,-214.65618868255285,1291.0899818908283,-1769.84,691.324287702085,356.3868997685132,487.2957479175225,739.2781727190957,158.89356718755656,120.81369625601687,3060.9299818908285,-0.0,-38.18427827351681,1380.7388844328334,-976.5284262236207,1778.3857298083508,455.67194240858817,214.65618868255285,-1291.0899818908283,1769.84,-691.324287702085,-356.3868997685132,-487.2957479175225,-739.2781727190957,-158.89356718755656,-120.81369625601687
Klasse,minimumSteigungWert,maximumSteigungWert,minimumSenkungWert,maximumSenkungWert,steigungA,steigungB,steigungC,senkungA,senkungB,senkungC,mittelA,mittelB,mittelC,gesamtA,gesamtB,gesamtC,fftRealTeil,fftImgTeil
Finger1,333.0803718173739,424.0471327517733,176.9050487973704,382.1141914467454,651.2503289736001,-41.72480894347905,0.7864501826641899,381.73292926902957,-30.854048246403863,-5.085297940993996,417.8621755092727,27.02429097034974,-8.595860103620566,575.0987053539379,-29.842065846033393,0.5045019342673784,8568.665420614743,0.0,371.8672436786619,8227.572539842795,-2995.6996631946636,6400.413094483087,-7978.35480738771,-4144.466963148585,-1034.3736823998752,4298.539876520079,-3997.150111937277,-713.8722901386594,-2749.090292086569,-2376.3543435855518,3969.3979346990336,-2216.704814631654,-2283.564658994823,5276.67482096296,-4646.310592338829,-1470.944748963785,-2775.666313257986,-2547.819907503025,3782.176539346724,-3526.3242537909377,-23.85864121139025,-317.71989351630236,-173.73231825137532,-891.1561763805632,941.0219438044903,22.849839893820786,-118.39869085768555,2123.8087192074336,-4926.535420614744,3642.13,-3363.7073641239267,-3623.7975173571986,-1096.251251392278,-4672.553138514654,5803.041416086725,-1564.2869757853346,3.793429558902062,-1497.6954723593367,939.8631548847253,-963.7904873046205,1862.3710249414612,526.6524529099247,-1287.8592378529195,2940.194621058019,-350.13940034821644,-2759.6292383800787,2037.0730986427907,-714.3168935495623,1729.976250023265,-688.2376100689239,176.29963016986267,3501.381777732178,-164.39831652423618,773.4438236381018,-353.44208017881203,611.1067632128377,65.44990897142412,1437.3723335901377,-2048.5793318192386,-1964.7096442172783,-8568.665420614743,0.0,-371.8672436786619,-8227.572539842795,2995.6996631946636,-6400.413094483087,7978.35480738771,4144.466963148585,1034.3736823998752,-4298.539876520079,3997.150111937277,713.8722901386594,2749.090292086569,2376.3543435855518,-3969.3979346990336,2216.704814631654,2283.564658994823,-5276.67482096296,4646.310592338829,1470.944748963785,2775.666313257986,2547.819907503025,-3782.176539346724,3526.3242537909377,23.85864121139025,317.71989351630236,173.73231825137532,891.1561763805632,-941.0219438044903,-22.849839893820786,118.39869085768555,-2123.8087192074336,4926.535420614744,-3642.13,3363.7073641239267,3623.7975173571986,1096.251251392278,4672.553138514654,-5803.041416086725,1564.2869757853346,-3.793429558902062,1497.6954723593367,-939.8631548847253,963.7904873046205,-1862.3710249414612,-526.6524529099247,1287.8592378529195,-2940.194621058019,350.13940034821644,2759.6292383800787,-2037.0730986427907,714.3168935495623,-1729.976250023265,688.2376100689239,-176.29963016986267,-3501.381777732178,164.39831652423618,-773.4438236381018,353.44208017881203,-611.1067632128377,-65.44990897142412,-1437.3723335901377,2048.5793318192386,1964.7096442172783
Finger1,333.3115192278839,876.3715068679493,354.44021894390033,810.5261048572094,333.6674966544051,192.5971027155574,-14.25464167675409,875.2402735130802,-240.71142524995662,21.992329481883758,417.8621755092727,27.02429097034974,-8.595860103620566,379.7703424574479,181.62480519608994,-21.16836467679937,9462.341738171785,0.0,1338.2103452566434,5414.176495125348,-3502.8313191247607,4808.217353046161,-386.89835026554033,623.9497067271088,-5828.891738171784,3633.45,-1306.0685327392816,-701.0378838728357,1020.6743851256224,-2151.900018840777,-1565.66147759763,-477.6534263352411,-9462.341738171785,0.0,-1338.2103452566434,-5414.176495125348,3502.8313191247607,-4808.217353046161,386.89835026554033,-623.9497067271088,5828.891738171784,-3633.45,1306.0685327392816,701.0378838728357,-1020.6743851256224,2151.900018840777,1565.66147759763,477.6534263352411
Finger1,26.007127965232918,388.0123110095864,171.1861094832171,365.3681604423133,94.3213063367075,5.899221441069926,-0.04756202199149362,366.7033937379397,-45.1653631743834,-1.0171077294438078,381.7108588411477,25.916424136127716,-7.101118892565523,102.96006734128832,5.017053135765934,-0.03380728634886676,7106.38323744845,0.0,-8322.553946574986,13014.342265364388,1967.1661324795725,11991.460429793246,-26072.722381555854,-7749.650025490173,2540.304891635098,5523.378006125636,-10758.195373048693,-6312.569784090105,-15817.792449061879,767.2851515433363,9010.06780582445,-17849.706198410728,301.05812489155244,3309.178640416526,-9749.44839780782,-6565.7430992894015,-10026.721831341227,-194.89356796439733,8216.244625373653,-17085.23967121373,-2414.5457731328424,1593.0345482777452,3926.8863948847047,-5241.32366583738,462.1780220351983,-6217.501162685285,7451.095635710055,5051.047352679759,-1643.4520039514214,3811.1510665563906,-6220.417353659357,-8189.106646964981,-8477.835976585937,-2212.4628983013517,11146.733313307062,-13758.847426548376,-2868.1610718967827,1149.8270947915553,4555.1550854192255,-4406.307467564678,1755.9057097603672,-7695.911805718331,7272.416952873455,7271.218731680945,793.0100932590467,1524.3518839451458,1860.1165963888157,-2297.778570226008,58.1369845034169,-2623.8864730056434,4433.971892787953,4049.360864483371,-1863.0094920703932,-461.83676411355646,406.74641970253504,235.67207496526896,2070.1906488286245,-254.08922654117342,-1929.8968358742138,1044.3881401633535,-3580.88323744845,3525.5,-2597.027980583395,-10889.080543896845,-7204.326354299761,-5345.323032564291,16818.716934933826,-9195.291851529697,-3687.163814055916,-891.4477308013015,7527.826310608744,-2389.103113076053,6304.398160449559,-7581.723820043136,4340.066029745365,11899.22131042094,-1110.384614678413,-205.74937594706876,5975.338188499477,-1784.8728358106255,3288.1737099504644,-4015.089096358051,3990.3535101980087,9557.482081657305,-300.3645498263479,-2060.9176575568454,828.1718916256259,3209.769654047841,2849.4363723081815,2087.1502484832504,-4792.276739631821,1172.538200724076,-230.26782910794054,-699.0609854694052,3374.687927500231,-124.57423527966876,2481.885380827418,-1554.3253989665018,1195.9229774014075,6110.470797644704,-506.1975495030234,-1960.5312447142237,1377.703001712286,2180.828011551518,2273.478395593106,1299.278345817436,-3374.8651709905466,1220.5090626003166,-1858.864383106525,-692.1501369333066,1681.8610719341323,392.2683018978314,1078.693731315207,-757.3445821790838,-997.2164722579228,1473.1948939171848,1739.2787574942536,325.4916851636034,-1744.2855606354522,542.6247167585796,-630.8487859593495,1483.137572763731,-570.5499565398263,-2002.0471398050759,-7106.38323744845,0.0,8322.553946574986,-13014.342265364388,-1967.1661324795725,-11991.460429793246,26072.722381555854,7749.650025490173,-2540.304891635098,-5523.378006125636,10758.195373048693,6312.569784090105,15817.792449061879,-767.2851515433363,-9010.06780582445,17849.706198410728,-301.05812489155244,-3309.178640416526,9749.44839780782,6565.7430992894015,10026.721831341227,194.89356796439733,-8216.244625373653,17085.23967121373,2414.5457731328424,-1593.0345482777452,-3926.8863948847047,5241.32366583738,-462.1780220351983,6217.501162685285,-7451.095635710055,-5051.047352679759,1643.4520039514214,-3811.1510665563906,6220.417353659357,8189.106646964981,8477.835976585937,2212.4628983013517,-11146.733313307062,13758.847426548376,2868.1610718967827,-1149.8270947915553,-4555.1550854192255,4406.307467564678,-1755.9057097603672,7695.911805718331,-7272.416952873455,-7271.218731680945,-793.0100932590467,-1524.3518839451458,-1860.1165963888157,2297.778570226008,-58.1369845034169,2623.8864730056434,-4433.971892787953,-4049.360864483371,1863.0094920703932,461.83676411355646,-406.74641970253504,-235.67207496526896,-2070.1906488286245,254.08922654117342,1929.8968358742138,-1044.3881401633535,3580.88323744845,-3525.5,2597.027980583395,10889.080543896845,7204.326354299761,5345.323032564291,-16818.716934933826,9195.291851529697,3687.163814055916,891.4477308013015,-7527.826310608744,2389.103113076053,-6304.398160449559,7581.723820043136,-4340.066029745365,-11899.22131042094,1110.384614678413,205.74937594706876,-5975.338188499477,1784.8728358106255,-3288.1737099504644,4015.089096358051,-3990.3535101980087,-9557.482081657305,300.3645498263479,2060.9176575568454,-828.1718916256259,-3209.769654047841,-2849.4363723081815,-2087.1502484832504,4792.276739631821,-1172.538200724076,230.26782910794054,699.0609854694052,-3374.687927500231,124.57423527966876,-2481.885380827418,1554.3253989665018,-1195.9229774014075,-6110.470797644704,506.1975495030234,1960.5312447142237,-1377.703001712286,-2180.828011551518,-2273.478395593106,-1299.278345817436,3374.8651709905466,-1220.5090626003166,1858.864383106525,692.1501369333066,-1681.8610719341323,-392.2683018978314,-1078.693731315207,757.3445821790838,997.2164722579228,-1473.1948939171848,-1739.2787574942536,-325.4916851636034,1744.2855606354522,-542.6247167585796,630.8487859593495,-1483.137572763731,570.5499565398263,2002.0471398050759
Finger1,73.77055079772687,654.0812468608161,269.59357364373506,602.5739951823344,479.9558634802629,-5.280214450268261,0.031196495357862508,604.269941666427,-89.06948356743942,1.1565351320911077,642.3860399901478,47.58297687524464,-13.58506586561407,515.9602037093523,-8.331373483206193,0.07095476824434055,4782.664124441462,0.0,3187.5237164514815,11319.532602628846,-7412.976583699153,-12666.875384691713,-1051.1854602318272,-7641.0303192414685,-4040.840977459215,634.5856481222628,3852.2688109022088,-235.3596922788846,31212.40093675097,-1301.1549159121523,1576.188767050267,25664.87225072197,2431.4107688872377,4240.606749274405,-10449.771274932904,3038.4965492934566,12008.022292091146,80.82425216290335,1714.4979047561333,3945.7524215969556,1637.615302716698,-106.8474955413601,-4361.99950421269,2990.137641086707,-2336.5299146149323,12876.10957688024,-9953.674933926994,-3752.1216591014536,-1500.331812802011,2933.1260884498847,-7939.687640692469,-982.4196801906423,12385.112937466178,-15.922409243466973,3188.4979167193205,3793.1862532233004,2382.349945649775,-1934.5271066112286,-2890.3064830801713,3687.624929491914,-6425.671578792051,17853.8917804359,-14172.37843627105,-6042.659218188046,-3098.638741869709,341.7535213068717,-608.1673211159118,-6003.697423462372,-1735.323333502911,5133.346845821747,-2064.3521809505955,-855.8257015596648,999.7184663464343,226.7503385536769,-1301.0997919880238,-2943.0290351643207,-4962.322387151542,-1704.8377109872501,3290.6856783638764,-4212.502609859619,-2620.2805507977273,2162.383573643735,-7075.512265513846,-4254.956015924655,11318.737570940637,3784.9943335738626,3218.698186109981,4510.165430317417,2549.0585585333515,-1794.1271251182106,-2724.271494019013,2541.432901908308,-14575.545089246622,16181.645925920195,-13376.875758485487,-11920.536317701459,-3298.0099542533762,-1006.6755568841743,3148.0023867870377,-6550.770945050043,-4928.281707336762,5650.794489747342,-2786.3715788249237,-900.9104834934723,91.14058641159988,559.7489974471649,462.9508484045555,-3071.0103960299202,-4899.146595531624,-5709.8503406193995,5613.424744326994,-3401.265619484401,-312.84553765215765,-1688.2312620042833,3006.109699972391,-2177.9630294457193,-4404.004660400412,4746.409351855796,-2988.98099680064,-621.7570968514372,-64.04748667155741,1216.6462673588853,-221.03807226285153,-2179.984269872435,-3644.150668137723,-6608.690202990139,5724.254019449171,-2953.1877454702626,701.3328044645389,-2193.423048444134,2839.032988304955,1951.657452864652,-265.4769470404258,-196.45517114318932,-625.6018807902323,-82.1110981692118,1279.7627500669057,1269.531917870346,-680.4113127710546,1248.4232194150686,-840.0028106825032,-160.57697975731799,199.14939580489272,-106.2448638833738,-4782.664124441462,0.0,-3187.5237164514815,-11319.532602628846,7412.976583699153,12666.875384691713,1051.1854602318272,7641.0303192414685,4040.840977459215,-634.5856481222628,-3852.2688109022088,235.3596922788846,-31212.40093675097,1301.1549159121523,-1576.188767050267,-25664.87225072197,-2431.4107688872377,-4240.606749274405,10449.771274932904,-3038.4965492934566,-12008.022292091146,-80.82425216290335,-1714.4979047561333,-3945.7524215969556,-1637.615302716698,106.8474955413601,4361.99950421269,-2990.137641086707,2336.5299146149323,-12876.10957688024,9953.674933926994,3752.1216591014536,1500.331812802011,-2933.1260884498847,7939.687640692469,982.4196801906423,-12385.112937466178,15.922409243466973,-3188.4979167193205,-3793.1862532233004,-2382.349945649775,1934.5271066112286,2890.3064830801713,-3687.624929491914,6425.671578792051,-17853.8917804359,14172.37843627105,6042.659218188046,3098.638741869709,-341.7535213068717,608.1673211159118,6003.697423462372,1735.323333502911,-5133.346845821747,2064.3521809505955,855.8257015596648,-999.7184663464343,-226.7503385536769,1301.0997919880238,2943.0290351643207,4962.322387151542,1704.8377109872501,-3290.6856783638764,4212.502609859619,2620.2805507977273,-2162.383573643735,7075.512265513846,4254.956015924655,-11318.737570940637,-3784.9943335738626,-3218.698186109981,-4510.165430317417,-2549.0585585333515,1794.1271251182106,2724.271494019013,-2541.432901908308,14575.545089246622,-16181.645925920195,13376.875758485487,11920.536317701459,3298.0099542533762,1006.6755568841743,-3148.0023867870377,6550.770945050043,4928.281707336762,-5650.794489747342,2786.3715788249237,900.9104834934723,-91.14058641159988,-559.7489974471649,-462.9508484045555,3071.0103960299202,4899.146595531624,5709.8503406193995,-5613.424744326994,3401.265619484401,312.84553765215765,1688.2312620042833,-3006.109699972391,2177.9630294457193,4404.004660400412,-4746.409351855796,2988.98099680064,621.7570968514372,64.04748667155741,-1216.6462673588853,221.03807226285153,2179.984269872435,3644.150668137723,6608.690202990139,-5724.254019449171,2953.1877454702626,-701.3328044645389,2193.423048444134,-2839.032988304955,-1951.657452864652,265.4769470404258,196.45517114318932,625.6018807902323,82.1110981692118,-1279.7627500669057,-1269.531917870346,680.4113127710546,-1248.4232194150686,840.0028106825032,160.57697975731799,-199.14939580489272,106.2448638833738
Finger1,303.4103457942725,729.8069422388362,71.68773465523931,655.4433890161682,298.4614718216558,126.52346400054739,-4.373290155435825,645.5958607062968,-33.31892528552521,-26.776714203703534,749.707335983192,2.68189141114226,-0.35142642270147917,391.6448920261464,72.13053375000527,-3.0793503590602995,30228.038080449514,0.0,-3416.202807249717,21041.561505581078,-2238.0954623804673,18186.813256371148,-8729.399968087717,-2438.5696998110543,-7826.317891006906,17431.25053382466,-9347.931845463681,-6168.860159199356,-4082.6589002514374,-1459.554126456731,196.84317124858944,-763.410839548261,-15748.470345794274,14479.56773465524,-7533.137963593956,-11524.602174520001,-5436.944601460729,-6953.629986872891,2987.312404584859,-1887.768678641784,-1682.780188030385,-6463.147545212634,2833.604502156801,-392.0259179791374,-1118.3713490508453,-1150.9709369295638,1228.9164730163568,-879.8884567018988,-30228.038080449514,0.0,3416.202807249717,-21041.561505581078,2238.0954623804673,-18186.813256371148,8729.399968087717,2438.5696998110543,7826.317891006906,-17431.25053382466,9347.931845463681,6168.860159199356,4082.6589002514374,1459.554126456731,-196.84317124858944,763.410839548261,15748.470345794274,-14479.56773465524,7533.137963593956,11524.602174520001,5436.944601460729,6953.629986872891,-2987.312404584859,1887.768678641784,1682.780188030385,6463.147545212634,-2833.604502156801,392.0259179791374,1118.3713490508453,1150.9709369295638,-1228.9164730163568,879.8884567018988
Finger1,67.19007698313791,533.3646520955434,183.55164606998216,541.4779268723703,15.542185254965517,-0.012678463974382076,4.094667240355224E-6,549.3243384991483,-149.86549098953583,14.087902766543436,517.2930780501683,25.353891887324153,-1.792473963492796,20.705702891203174,-0.02437463640600951,8.23254682936045E-6,-21589.29827694688,0.0,-9726.141364009613,-17007.697895431895,674.2057302637724,-19746.748488566,16302.939489199163,-5990.914814680524,-16008.403681377542,-10527.944858084515,812.8997070694886,-12849.554487754029,10299.626688109027,-12021.577397998875,10699.539431355628,-1907.4716230336112,-12854.216146040892,-14479.162424760969,4564.368266978596,-12310.651940516711,14153.299411962122,-8334.947736705844,9291.087188741549,1893.2911222460393,-3294.61475671031,-10290.042253833411,42.99122277494659,-11725.842286748566,8189.133545852015,-5747.624570261783,14940.443031598357,2863.561418029684,-5653.864340981401,-18202.20414288107,9386.070918186258,-9449.498522721999,17279.42391935389,-2031.9048317817492,7548.4984914469405,7622.38955883342,2463.067631710638,-12251.345979874743,7313.867273850646,-9580.453960123774,10885.970683901922,378.9620114160686,10860.84651067582,11814.882660354771,7067.544401279874,-11229.42537912999,7413.905908784762,-6539.613356900139,8612.503976347836,5997.34664998307,7341.385978830278,11318.843767816881,3211.7921951881945,-12470.29467488117,18247.269368195637,-2654.9897897189185,13042.729522247013,8228.947765483716,-2029.8639162931358,15670.465771342537,6024.75379031107,-14767.76211046537,17851.80403815071,1088.849101942925,13232.69484410719,10366.051852303604,-6132.790490259228,14353.598509115593,16566.52187363149,-7589.268394446138,10639.503950708684,8621.661283103866,1240.2919593571028,14108.973374156929,-6586.867180835219,10987.172605625885,20260.7047511785,-2805.6941930750972,7031.474849064755,12138.518464908862,-3374.5004935859797,16808.602003632688,-9082.925594831831,7504.935651028416,9187.634946106285,3366.961459487336,8671.92290553548,10606.796447201832,-2116.0414292635705,11878.3170108273,-15682.408900918359,6019.776093415892,16349.803675461404,4566.646596939323,-1351.8014037648488,14753.146164428841,-9832.357534323059,13568.472711476723,-10798.61476676828,104.27518549101023,7499.793432779242,10661.14879430144,94.00853041232733,11952.277843219576,-9602.848544404726,8450.908509703288,-19019.41773501608,-3089.862439354563,3966.899237304934,14337.70757321565,-3548.5228208611393,11074.171245558231,-13048.406550737314,4208.830803350391,-16268.831066101011,-6579.394118247128,5938.173306876314,12903.500316960788,-13027.79741788751,14025.739629285163,-18740.78343202684,766.4918357146279,-5709.8935695389955,-15095.788008542806,4230.063341944424,-18515.16635730975,18056.648636295187,-3311.4058207980506,20086.57269139195,5271.831764848591,49.77243279077862,18392.851441648367,12272.589466294896,-10072.41682979809,8020.605665222435,3683.868977117579,8028.472233961735,12332.209087680212,-2305.2939734614715,11173.867294081338,13880.817003325072,-5745.608282787853,3212.0844365429184,6338.626100865259,1598.7280907335953,14778.267608754328,-4297.471667057976,5339.347679611224,5216.152334174589,-1453.1969915927912,10051.071835324012,450.8608265551685,2606.441267956341,9217.198021768745,-8841.877708502307,11828.531835198064,13265.42636085911,-1493.2869385327003,2304.550496608597,8298.142646229186,-2385.378984831383,14236.947556072011,-5490.7081928590615,1928.0613374367272,6060.012484798549,1001.3135812403102,7527.542426767612,3624.784389510061,-612.7510360257934,10312.625492619118,-12031.592118970646,8419.951005343934,5886.944629218282,3811.0295550575065,4972.808506567657,4685.921198029386,-4579.418727605907,6794.476264415879,-10478.843349854997,5885.859289020967,11888.689000868966,2581.1839892320277,-1974.7876699775904,14817.285668775097,-12265.087927205568,9130.887603602003,-12949.118829136743,-6213.135727631153,11216.947110824782,10695.158276596661,-8940.4437174095,14673.342579449833,-14343.665263054032,11328.098738487035,-11796.01096007141,-10063.646283176375,1539.850345860048,15348.570538614316,-8812.021015484945,4622.992742049071,-15386.951745551447,1251.6899364605968,-11005.477175958462,-9995.535264144111,-4219.634556649109,15648.963607276219,-11008.78980574746,691.0337792519289,-15285.762010387214,-5951.922909243971,-5370.482214534481,-11128.140739903169,-3294.0715901263397,7239.978754622095,-11646.509635563107,5363.894546907097,-15361.653764380153,-6854.448095207568,-560.8713552160636,-18027.19585237291,-9883.138250027067,12985.721981633942,-13818.706091100295,-5242.378716416802,-10989.1463457382,-13834.340393911752,4148.289021323984,-10518.36169774272,-10320.342903406772,4537.552987226875,-10504.405616932676,-3367.884053472436,-9619.536684650113,-12517.538568292304,7494.10522998904,-17151.021213716864,-12448.35164974691,967.4605983942866,-10994.260432498162,-7066.000799202979,-3139.977416055348,-13295.980695345035,9407.779017445104,-13564.835652908809,-15227.8244470535,912.4688698898578,-7478.048461079255,-16705.42124963004,4968.466706355668,-20887.524715044834,17086.28138132443,-2322.6880959907776,1214.7680558162388,-11913.944108220498,10609.824530575805,-4994.095118516692,12261.723971659467,1054.3401948585997,2670.8528168853336,10175.042384387609,6006.93472039588,-8553.758148853642,7742.515724876968,632.4451120400169,7448.5977116391905,6542.271706482377,1352.6323626408534,6689.094068134918,8184.270296735305,-6326.195963296404,6147.121111968279,2571.6613181691955,4736.061543189718,8508.984822080405,-416.3988737339819,4895.674064539469,6397.5518166321945,-2333.132577701792,8903.657974460004,175.7415077594328,3820.663461382401,6847.3148100151875,-3412.1834216863913,10536.519589121526,11245.451360153871,-2079.1333332293407,4437.315105488122,6072.912571757889,-92.01388814846837,11258.231860849646,-4514.0328706841265,2462.0076329976614,6341.888353014092,1767.2654953691329,7011.169364049358,3677.591952604335,-232.7749745713752,6886.379285034634,-6843.563880673226,7923.723764370173,6234.209913639949,4482.287389545721,4728.405385080969,4679.703799535599,-3750.8089654446594,5441.414981331237,-6658.318059116062,4614.871629926593,9497.210681299544,2251.582236545739,1514.3819658465154,14417.643137166804,-7412.827839739601,8937.478070134002,-11646.718278521692,-2531.9399205682284,7490.807981024895,4180.392099556884,-2237.6947330190897,9476.29457950105,-5453.040772984199,7808.912529234665,-6959.186757426491,-4847.932119060408,2644.896330043817,8640.840523809984,-4960.53901910939,4317.35564909831,-8225.538599490355,1068.7757617607072,-5223.078627363477,-4200.323587596731,-145.22581915565115,10664.437355701957,-5709.79248376207,2566.2584417451117,-8747.838979143122,-1758.3256646150533,-3270.5496603602887,-4728.62404254065,289.1962965133116,4256.581203737243,-6150.7150333371355,6788.226862153879,-9008.683549280075,-702.6951650138578,-2937.829992359342,-10266.770893059933,-3647.705479197265,11281.19063177615,-10273.989475402639,-650.9525982366409,-9932.1393007448,-7058.671543513452,1382.9202691149476,-8014.489480137863,-7400.981559976095,4431.1838795157855,-7866.339235515183,-594.130420849271,-6171.714922046657,-7636.057119651312,3722.1447273300855,-12334.370624218021,-10079.882782537294,3008.448174924663,-9094.168621992929,-3597.809814495027,-2975.736346486645,-9758.55649844207,7043.490507530839,-10420.265414731915,-9802.50350319115,3929.1039756086484,-9165.337222770246,-10776.47410032362,668.1298892976349,-14851.583964699032,12426.040163327416,-2851.077401866987,11645.607181296069,4518.110070225728,925.2799566740154,11529.010177607644,-4999.687672425263,14040.983395283667,-11823.987532109784,-800.9564757632893,5761.174381249394,8248.040931283087,-1219.30537944247,5970.553700735449,-10492.130624117133,6324.106866254053,-8778.372894812499,-2029.9848124699026,2793.011117158241,8950.75444342237,-3407.56026806909,2664.0382708527986,-11624.769221683764,1798.785718834647,-4134.363548682813,-3618.5042848985026,2028.1547051150646,4542.013404425332,-1385.0801798198504,8747.772037508901,-9896.150285884647,572.0966043497258,-7996.979015239532,-7776.384229579443,-472.0675609678782,11742.79731898428,-8264.499890876634,2852.784273901505,-12637.352216026648,-3205.027079260455,-972.7991754872018,-6197.062779702331,-1956.6439422912376,6153.432165751477,-5828.753873367099,5975.219687337567,-9966.611789750148,-3004.4400259179774,-5394.429512858655,-11062.272247565843,-5454.989518078619,5891.993554788071,-7327.088622287875,1491.1466347565101,-6365.589655016918,-6515.716126659233,-1377.333879834147,-8979.460212061193,-5746.510347137406,8598.589426096396,-12122.554673425877,-4359.506074164466,-6195.536082623357,-13123.706307109089,7751.404074955442,-10425.63962861336,-9749.44600801785,7270.272928452798,-9668.615413028085,-7097.174807427729,-7263.592895575839,-11767.639794451232,8287.60313920942,-7558.224054392031,-11153.645577451021,-523.9923531076147,-2836.477238799601,-5324.377785369781,-143.2839409596562,-12552.248449338795,7395.303869409959,-6646.489631738563,-11348.099659690193,-4779.9400375232835,-972.556233544239,-8573.913047728409,5705.600637292499,-12690.717579432563,10134.021422985781,-1897.0331137486503,-5977.481619943726,-3290.8249688498345,-3757.586499283846,-8525.013911540933,7551.9100879625985,-11545.103382551732,12679.862895560616,512.4398352568724,-11422.5805171204,-9148.99270835188,2388.8087512159036,-12891.018836783023,12763.641535521376,-9343.54078253787,10391.63728694553,4820.25225626374,-4207.18855457791,-10225.22046168245,3508.6656973065083,-9940.11681842015,11749.658004232053,-6287.467745965649,12936.408807472924,6662.4509964678855,-1110.6203701215716,-13493.040013234888,9107.653273254304,-9998.090977547949,13698.369979324085,23.06313828251882,8955.932743959038,10165.500103176684,2599.2390501260493,-13340.410220834272,14216.31692158799,-5126.332824524332,16452.993484784594,5413.8007805514135,2680.9309695553065,15400.405180398931,6072.5045181584355,-14377.679209152651,14234.63623507467,-2101.359805898386,11888.667886256444,5667.461783730454,242.981547943343,12834.40797250799,10953.303278728567,-8368.807222690091,9964.8927246286,4246.340325368633,6653.338544208304,10363.967220860388,-3037.19566756959,8856.0371250266,13317.949857186426,-4456.563703498592,7522.667803546273,6942.913883994669,2276.4276174360903,12086.302880089832,-4902.475608153756,5866.7649443624205,8962.77459963266,942.8252787937006,7215.217085310438,3825.9554115173155,321.73796395743943,8161.104086684409,-6059.019339685575,8308.239550865099,12385.963278976618,1409.8946386987166,3513.427821056802,8809.888101984074,-2772.6001315425156,11197.411121480323,-7654.254881312449,2315.034814917519,7246.004513547641,4347.993631846649,3985.296411754643,6639.153219674126,-3675.0504276250676,6913.357928664369,-9159.930695906653,3588.860369905382,5667.452214961324,7449.021531520578,1976.285305176504,6181.865349057722,-6763.924168143296,4067.5604888909747,-7986.633695495408,1707.0271071396955,7416.5033914521355,4838.856709480297,-1246.426209712991,13046.581185287696,-8019.133674682479,6479.905493411798,-10294.613527739377,-4034.389585732705,7170.54470217375,8617.970420686699,-5990.046263335648,11732.16412948502,-10026.086913561176,5168.035003666943,-8470.800478694176,-8473.577099586653,767.6064891178889,13258.88923362138,-9674.260071471697,5200.191306306107,-11249.498539739841,-2534.4549071127767,-5209.65190475489,-8820.535706890189,-3219.004883472115,14629.856243789613,-11201.770837090615,1749.8903623267252,-11469.48149627492,-6551.460390099571,-1661.2279967388804,-9063.26956049665,-6124.8683095579,5812.487710950698,-9431.71567004737,2441.7708993787755,-7520.741116354041,-5991.136602856285,532.0275243827405,-12143.893179038241,-7957.175599454703,9759.47238467549,-11336.459337955495,-5119.37717814303,-7100.823088106992,-11081.40306670484,4746.328082733973,-8559.732357505549,-10644.0383031902,1917.9067662623793,-7779.101738663161,-4516.1446389861285,-2004.4491339178455,-9996.00990795379,7711.642390321571,-11288.390620269567,-12460.208237434501,-1228.9181301243532,-6085.504649417942,-7020.795523943056,1975.6202412764262,-11052.410401464882,9189.884702835865,-7881.109588851046,-9783.539680484664,-562.2773646870698,-6132.834606575094,-12322.43844397155,4437.075128499294,-12544.280602609113,12680.379245531449,147.24859759263063,10471.505389264461,7906.430824486144,-2092.0364405899554,12563.125510581714,-8190.0154608472685,11116.755076673133,-12434.61613404873,-4042.7487687620974,3577.960179657395,10798.654451113714,-5014.4998772158515,5115.856967528205,-11605.639052936094,2960.272689794205,-7202.802849897641,-5709.968018165178,149.1428613671876,10921.520363104524,-6307.296365233321,1091.7936654191167,-12047.085029443224,-2264.2185109525944,-2182.2953990342066,-5870.119576292849,-1861.9074067255785,4122.677404808626,-2396.783001598834,5539.8803148186435,-7546.126221434757,-2238.46987650489,-5122.386978365762,-8294.134235780333,-2562.447038313593,9349.190355580658,-7322.579952973856,198.21930352846255,-9867.89768953994,-5428.130888969495,784.4231880260957,-5814.993703897773,-3094.177861929032,4013.174473913911,-4549.383122312374,3553.0052500803313,-6648.544215174299,-3930.005343405046,-2344.0453508047462,-9688.45070099003,-5785.704228375942,3101.2228756663717,-4670.352510528934,711.7739823706991,-2972.296330753486,-6514.405746601848,-724.9296094251202,-7519.450935668027,-4615.4399811658495,6436.103005236056,-10024.649307573778,-4563.620113838977,-3910.1156138871575,-10889.89412189623,7349.813275315161,-8084.4723864801435,-10602.783017499663,4293.279218615318,-8656.845135113606,-9858.454448780827,-3709.4207288217003,-13055.618182000831,11111.023901981196,-6257.669327710821,-12164.495809769414,-3536.451873669515,-856.9848609168605,-8463.501036400776,4091.4937687527995,-11973.81357319123,10158.10511613917,-4270.7227037779685,-10942.986707608954,-7839.111688842631,2785.8481392620206,-9945.707963188896,9698.12291951337,-10798.183713938835,10246.876798721689,1092.0022481819383,-3184.1892112652968,-6759.689457652588,37.624477698672536,-8654.794267379868,9465.71891701713,-7751.25925046516,12212.272611034976,4058.8116736300453,-7234.693817494373,-10075.285025308309,6989.656763624354,-9874.607230309764,13415.116146303657,-4969.947458905424,7099.900355703708,7192.202098194635,126.96132529035958,-9732.048033767504,5383.05147544049,-6154.158325634075,10576.741502041285,-2281.8615505579555,9713.212126941671,8696.129941637118,3359.0685398470687,-10817.61632335515,8661.36124289103,-4844.301033239621,10477.196895643694,3127.2719513617717,5553.9863030790475,9466.166712228529,4126.914950212525,-9915.248382724427,13103.712574234763,-1764.8970802107656,12689.67267236016,7211.722947209679,-1460.0016114680222,12795.741871003956,1915.150633810448,2665.330395536622,132.65426011903645,3399.978579155667,-2404.952332429537,2109.7857436084064,-3060.920731496877,-889.0337401256462,338.5672587527278,2758.219682922884,-2037.8683908281814,2546.8513032213023,-3830.765801532433,545.9135679790204,-1973.7011779370177,-1991.0149823960942,-660.3396379493768,3131.681239053708,-2745.146494479758,1064.195579652766,-3844.2555410704563,-925.4449714371974,-307.5928223634756,-1883.4429943213356,-2219.132705171117,1931.5770960461184,-1907.3527142172277,1496.5587177490904,-2932.5952723795835,-1925.1780891861617,-1475.858261964374,-3531.1777883891764,-2862.6860043905126,2175.636437222809,-2106.0253023299656,-304.63237197335144,-2041.6900193791553,-3527.026482610446,1734.046522786367,-1574.0048347435256,-2301.266266396912,-801.0398220026404,-2011.0953486444141,758.6676235490785,114.49688603022616,-1541.318250099168,-410.77907624110236,-2612.1884212840023,-3228.6245143690558,-1559.1290197765034,-813.3603312054195,-408.875461788747,1357.1883744025745,-2445.6927363453024,449.00683282623413,-977.9204961518617,-1148.0801107811762,1026.7222953958085,-4704.82699329949,-2955.3060076158426,-815.689585625371,-4054.902401164025,4309.1582194094635,-2458.7551124943625,-1160.5203980278955,648.8297538573127,-1930.1128950803914,-955.2419534160676,-1192.9005093975056,-2248.241795125736,2510.278900501641,-838.9750426547782,-2234.0963116972225,-1189.5670711153748,-673.058708550167,-2134.517088541358,1571.9824320434711,-2440.172760289801,2426.6697125218907,-781.7167849978985,-3010.356555330407,-2738.768324987781,1185.44743006083,-2335.4266402459484,3395.0380824141675,-2703.725623983023,2004.583371734961,1199.4743449713233,525.24407196016,-1134.4166345542305,-921.0974127929221,-2696.406210935366,2027.6244465016212,-2260.643019103114,4291.749337969364,1699.866627691501,-2851.4424293320003,-3082.5065912272453,2074.3018365102025,-3623.8565149676488,4734.032655497764,-1817.131792617724,2332.876212230787,2845.094961941236,1411.2200566992717,-3406.8506656789787,1902.6488993697449,-2478.4043399163174,2814.788818218747,41.18694361369984,3956.499904178769,3875.8362060126533,3027.794533978282,-4706.801148613691,3688.491803896928,-904.7938492911904,3739.162226934251,2568.025634357535,854.4059500783114,4638.275946501384,1290.4000260811197,-2907.1420836365915,6332.149875467306,-872.9917476738208,5177.949864482338,2990.9664126724447,-2427.3691839465137,6034.226506879033,-4594.08547927056,1056.4507946529015,-3861.4941550575986,-2423.1918968713417,-2319.9007824293976,-4901.189451206377,3411.936646769696,-4056.282775474104,-3908.9824783176273,-1567.4342471437087,-1330.695977614973,-2830.438849430591,1324.0266196184912,-5280.143490835903,4012.9525907745588,-2504.3587319584885,-3531.9787428416867,-2726.960273988817,1179.5475034658148,-3509.7056105777756,3528.5218644815523,-4879.436470162516,3818.797108788593,621.1561655369188,-573.1286156892229,-2279.0851512241825,-1103.3032194044242,-2945.4977369106364,3620.0004511794236,-3484.982122953936,6157.908047920107,443.03222598497456,-2573.435619982778,-4137.872728489343,1527.618377804812,-3806.9775557570792,5464.524219156792,-2232.74805102658,2570.513029504331,2539.2376738768166,975.2683748588618,-2720.4054833188725,491.85036607638835,-3269.1607278241167,2670.1626055934585,-1300.597638691521,5410.5884551039035,1461.2858371210964,2241.067780621963,-3959.613231398189,2652.1720624290683,-1327.2237969685684,3548.167075780073,1469.0722945004043,2294.507936684549,2285.847038018385,68.88520946229812,-2636.606534606387,6192.7616188097945,-2459.7037922012123,6638.018146723763,1404.2987387273593,954.0253707824669,7527.630871533362,-347.09387938522354,-4309.028468329112,4241.30498367026,-2309.9052302087066,6222.2717488516555,-100.49141607361099,1138.247491718985,4967.57282987942,3299.7446743783985,-3644.8910079062825,2681.6332385328215,89.69221270538844,3764.2794886491165,2729.613201707638,1790.6890114326302,4109.044354470303,5964.135292430903,-3204.1682375127625,4064.1920738337335,3275.661106122341,3648.031104774779,6581.053744264162,-2452.5750990219285,4576.710399337539,3240.48776768021,73.86873674932349,4057.1591753412167,1035.6963978078238,2659.0164625469024,5494.820512850101,-3543.0794483173377,5765.882743924962,5863.994437316662,-1542.0309886163973,3891.4358764881017,4520.023322449425,-316.62828050373736,6872.299773435167,-4731.5156881943585,2077.8518584773983,3922.5959915574686,2230.664923905182,2185.275978588753,3282.57651103652,-84.7543554336687,3812.3027131449526,-4712.140019364797,3419.3590505871225,4619.575703636703,4538.71215606664,-79.04859447873059,5436.500706882393,-3900.084159617672,3951.1615621295823,-4874.492862181212,-112.27776946717358,3404.097392013205,4325.816911977879,-1406.1607188625321,6377.875828757457,-5213.815088816054,4383.061336445509,-5904.385394823801,-2058.8129839192443,5514.3780784876035,-12631.924183620664,12362.037036978349,-1186.464060024577,11191.768725267317,5346.21707150232,-708.7211164866476,10741.449489231112,10075.362036696655,-6445.296662322349,6948.190461721886,3613.380036347143,4203.024981430159,8633.826106712455,-1281.9899213245317,6473.158069405115,11792.952794382121,-3591.5385922354812,5447.329524763003,5654.039662591847,1015.8206294673687,10072.12440320346,-2974.5577433627486,4536.969992139363,6405.589402050438,712.0793558710216,6886.3199616721,2523.427875955062,1528.5418603914634,5860.12457537372,-5135.667506701835,8180.559169750501,11727.383881309424,1284.1118686083018,2563.2732709373063,7263.755120316697,-2995.2451027694983,10135.221770026095,-5536.730883153987,2242.098771119982,5993.876794168179,4071.5964245384826,4170.67253496223,5907.918015255253,-2364.744585254507,5922.904139585919,-9068.201238991975,3876.7341291604603,4679.709568477276,6498.246651487015,2498.4678275453957,5490.603965941838,-5148.511476244952,3653.1678901867017,-8226.862549078722,2031.2624263043888,6883.096143238803,4654.068484794876,-2620.609868403509,11504.058331455482,-7780.943637909119,5869.17496430334,-8750.26315156688,-4555.242821565769,7012.704487938614,7260.502656066191,-5679.748424710337,9772.94807040137,-9294.435673613752,4898.128938691846,-6210.041991267955,-7429.703175077635,-144.8699183225708,11449.921593530897,-7720.414401435715,3297.3935882905034,-8367.939344249873,-3028.9955659075854,-4315.817794428751,-6519.057246437263,-3497.202547280086,12365.219839612888,-8563.752676329394,564.9323000041097,-8723.47072370632,-6092.651326307426,-1796.4543563720804,-6797.773461016617,-4164.703726530086,4186.3352310085675,-7998.698501990717,2243.347338703307,-6327.859736807279,-4244.9781945104105,650.2883956478495,-10348.105927284356,-6866.589449653913,8462.480071237493,-8285.298810963293,-4896.733371021972,-5363.265662090525,-9283.278974317209,3007.0558522993965,-6170.521018794492,-8370.432978974226,1535.4387719801969,-6784.564495893206,-3408.7312103968193,-2309.948650451705,-7975.706868667692,7064.490976923924,-10161.87779582689,-9361.714379092933,-1389.3422961110837,-5296.736634236464,-5047.4625261841065,890.3406570996533,-8666.782077898799,8194.628029720083,-7545.366590005858,-8995.773278007842,-23.505880108698875,-4371.587404650929,-11275.23685316797,4531.2789780707235,-11082.5109184364,10232.432821512502,1142.4540621545323,9394.27460449632,7272.44006579308,-3101.29422314983,10783.38039355314,-8240.793903372181,10144.369763787501,-10105.050159386803,-4856.270880978087,2067.755844146851,9491.99018841582,-3846.956288911965,2919.8509169243384,-9268.067394756541,1105.6205885714985,-5363.265439268128,-4095.208720953509,-451.15453674148307,9235.859547731845,-4284.69487968617,-431.00119055075265,-9069.791647422317,-3034.507173703438,-1391.9858006481418,-3621.7136402499527,-694.2475119791366,2768.1198942534966,-1980.3642913983472,5450.7965461260965,-5719.820135201906,-1118.1011172047158,-4522.426146811091,-7451.6487325896705,-2587.8157374366915,7986.787615777565,-5194.678324716126,-986.2221856805272,-7685.06149660369,-5164.169881005139,627.2318660426547,-3400.113145816721,-2129.006163932307,3061.0182929432403,-3826.1747496255484,3446.6243371251394,-5734.597749655228,-3055.817290269548,-1820.148195259705,-8944.693188624196,-3838.014213125409,2374.602317279683,-3792.4959420665286,1438.0960615664635,-2779.7216623906797,-4569.70704005125,-767.491127651941,-7254.527990780622,-4541.895439920168,5973.591917229318,-7697.990128014488,-5038.910977470652,-2243.862967587522,-9626.77601435687,6801.2033406770515,-5868.346125518328,-9392.001076017772,3644.287941113893,-6220.257208840371,-9244.367627960844,-2751.838463200369,-11733.397527480622,9449.827018587976,-4142.734219705137,-9716.409157858594,-3594.1913994138304,70.64848422901173,-6593.208415027137,3886.8388281881594,-9697.56666531078,8912.062441919832,-3313.5601031217184,-8040.308211664919,-7004.156733735046,2978.0440793109765,-6963.698040883017,8173.032838146191,-7744.447108947539,8214.077311981837,641.1633323459569,-2833.0489833496476,-4560.6726155192355,555.4745641327834,-7699.516635336364,8518.173767158709,-6712.359217917767,10207.121538169242,4759.684050833039,-5234.599953476374,-9253.37627084572,6691.54709941931,-7143.305073101924,11498.16151715103,-3074.9545084142073,5363.466899808634,5801.988918194218,104.01859365164523,-7896.06606969018,5218.792603159736,-5311.05455717949,10155.042704732547,-2097.8423311271263,8078.229012932652,9165.740859601125,3148.764513135601,-8132.373913258295,7631.588568353027,-4170.187160882377,9016.63353479968,2279.4271352507994,4941.3322633039115,9403.26209154037,4260.5339678699975,-9109.940027254546,11986.52757225447,525.5196576391022,11019.597329645838,8515.759082029856,-3345.589302664526,10974.648041809009,4733.18753979146,2566.356456011548,609.8051494267143,5330.365385675442,-2738.2680411112533,5099.122243872105,-4627.099830244202,-477.61344538810135,2200.107592813654,3553.96610983779,-1036.1486657310722,3202.716312841608,-3998.705675440875,1934.27784747634,-3215.428509708997,-187.63431334463394,1052.0117805812797,4274.057424869514,-1843.9656558261422,2004.0455855095886,-4449.025810223215,417.730030114436,-1939.1586611159605,-599.3190511324426,-34.238204889556755,2792.058543130057,-1475.7355219140265,4252.070543513406,-3853.2186151287633,389.536518282026,-4245.777558668068,-3618.3613099095255,-1592.7786500275365,4830.537652083417,-2844.3207671017617,791.3360843974592,-4362.223187395676,-2545.7538431296957,-35.703590744818484,-1764.0483840840902,-1467.3655392548035,1563.6956853606869,-2913.4356453027717,3055.9791912392648,-2644.0780966395505,-834.609595945187,-2631.8644500890646,-4587.254763441405,-2694.3172306164065,1052.2164174293787,-2488.9212196095486,1651.6138004692864,-1352.762031053596,-2203.4180372014325,-1129.1032017112295,-3450.6164866452627,-2333.5605360557615,3954.104965952572,-6925.7859835898635,-2389.3989942032285,-2684.7315154767853,-5124.855932118453,3631.2734722110204,-4609.24527064862,-2644.112981708065,2865.1564233133777,-3881.254260959167,-2038.378095400401,-2831.682385529287,-3744.6088411137166,3099.1718001414906,-2085.1447139137413,-3799.6179126712814,-325.06469256767014,-1300.1793555416898,-2538.535588830702,732.6101826193817,-3700.231921711871,2679.970475055902,-1935.4377899733283,-4252.830130461132,-2119.4408404770884,-22.62824044389299,-2420.665931267125,2475.383363289463,-3444.004508803131,2378.1693425031663,-491.5926596279053,-1590.5511570239848,62.006655765561845,-2322.0378387180895,-3974.224398447359,1841.0659610671241,-4210.503661159794,5255.050755485543,748.6091787191365,-4804.000362235312,-3622.046469225159,1809.646132294481,-4844.229961575763,5234.214217608729,-3468.876072910749,3649.280652789904,2118.066284250255,-588.027807623987,-4135.4122730421905,1729.5224474712481,-3969.581526819651,4682.100868860251,-1759.6250107225421,5510.678635636778,4393.653007828003,1005.3337285893208,-5155.087027745689,3518.3750561209113,-3320.9222814002587,5137.150884128387,668.7280273395527,3134.7078494774755,5589.203817634756,142.53715690757917,-5261.580718305191,7215.609938095951,-1904.3634712980806,7059.031708451257,3366.1522882985264,-1558.139035188725,6578.739276290545,-4422.292255288865,3900.095152984273,-5217.965671371568,-1864.4298954314118,-5192.866339048342,-5267.039231578267,2825.9615841063405,-5180.1444395595345,-4364.580667557853,463.12243494918175,-2410.83666988368,-1399.7144874205121,-519.3775179383595,-5884.935858380304,2772.166188098515,-3816.610709966736,-4106.3952290455945,-874.6535901667189,-81.6775884940331,-1903.616233994945,1791.745984727883,-5461.432128857815,2495.000360630268,-905.082552118677,-2112.741168826114,91.07933547588857,-3651.1893179887843,-2615.4187507854713,2071.48839494804,-4772.499881071963,5751.050253889869,-1678.7436626184763,-4775.101399426789,-2969.3805424782217,388.38410284244287,-4266.429162056971,4476.4180374143625,-4532.070208266451,2809.2317012613335,1075.263408954433,-1787.770597207246,-1859.925205862432,-1490.9143027693485,-4243.563223384508,3092.666835381373,-3883.3366250395825,6717.137164276354,-9.511737277276325,-788.3171163788518,-3482.7508942467807,1044.1587005470853,-3273.73519129517,4014.5916295230345,-1256.3804897713585,4196.761609207255,1340.2179226033381,-2414.3702415218277,-4259.460419625073,5393.505784287399,-4122.765121726619,7694.0148544995345,314.62875055203585,2548.009159275666,6645.158030530707,-1593.6660336064874,-5959.086999914201,4878.175438766078,-3436.5213697923155,7380.179639666633,-1177.56665395164,2206.003848914288,5385.308433331133,2392.692110001046,-4977.006965574605,2976.2638593642705,-791.9700993909273,6013.085368639271,2210.3882722968683,2320.739803280975,5070.593113885934,4973.396886170909,-4119.018596762973,4176.591241287076,1528.994837122231,4885.230186938965,5723.479546453762,-1356.6038057212886,5423.726310654571,2825.832084700647,-2173.6930742447794,5194.757599429243,141.63771983432684,4217.71760903987,6433.170633009976,-3326.839519941327,6396.614350262748,6730.610333966594,-3346.8199496038674,5599.402390275311,3759.43167212049,1574.0756871544154,8064.606946786962,-4562.920246167948,3845.600333925994,5489.025543910031,288.0324077906639,4119.156087735517,3633.5125792814015,904.3901198743702,6714.298936754004,-5775.231044644471,5039.705971489608,6460.839497501653,2715.3328642962465,2561.4216477655827,6417.647008912289,-2890.827021152716,6482.793710610091,-6638.760575060551,1974.013879875179,5816.499648976263,4324.387630414565,-733.5876514463171,8088.56256568154,-6361.036741758409,6934.571919662534,-8216.457110806023,-1986.0237177140368,4817.993703622393,5874.263902531419,-2107.514913465984,6450.933422925189,-5237.029585866093,3472.4428038397446,-5683.073960495174,-2224.2133164239813,1303.691470704519,5975.56694420866,-3399.8213605621177,4113.655782626182,-5843.533343681523,1331.6088823165665,-4096.6404148064885,-3744.9331756558518,-1223.8381922887747,6287.120760464035,-4311.500099669716,2059.4954948536547,-5608.755991302207,-1448.1762906328,-1895.5737084007692,-3830.1759112505542,-1683.1622642121708,4287.132600440458,-3566.6236226804385,2508.3991566565064,-4490.448806149255,-1926.0482626217145,-2038.4555158057303,-4509.020070087797,-4014.47817155928,4656.370143749851,-4628.7772075001185,-587.0380301349851,-3874.8113816119567,-3957.1715484447286,705.2446488527103,-4378.7396924917975,-3095.8827651668944,2299.50512041976,-4086.685267409841,242.91474969785918,-2509.4489463231366,-3560.4616352413896,882.5019626531471,-4726.367282864916,-4160.482816423992,822.9703706446487,-3297.702723458668,-835.5214223873601,-349.4838875779317,-4106.659363301403,1473.9249718960268,-3608.6041782419525,-4276.6931080681425,2157.1917747866355,-5265.594722960115,-3199.238628223544,-875.8413388934789,-4892.200117081338,3604.596519049497,-4014.6052903739715,-5816.865277902632,656.1386353751695,-3629.0472658231597,-5496.724013832843,712.723232804859,-5493.526359604177,5495.3529927980735,-1959.8700963682936,-5551.156507802027,-2779.129373119642,-350.03351755751964,-5684.4535059154205,3279.691214731455,-4705.951199807103,5771.180381384047,-368.58686018143044,-4936.91209237693,-4865.209062658412,1769.6258316435392,-5384.755871972485,5459.19438386131,-3383.81587484285,4655.2424644769735,1759.1665058811218,-1467.9519269416105,-4201.189515476729,1588.4662600640593,-4490.032162481042,4793.902765432156,-1828.2650357097243,4750.7521372095225,3065.896063383442,-2397.545249236438,-6060.528786722213,4761.989133672038,-4609.87982123662,6751.795769893864,-778.7629453024292,3459.0903290912215,4578.303019021853,1409.0370182182783,-5633.103337256868,4443.453255685304,-2523.2888541499506,5577.859615716017,1593.7154753098393,2960.931091024523,5992.11757834365,3324.2249740552006,-5436.766785025821,5228.074669311936,-904.4812121478014,4828.673557306189,3781.1924887661735,761.7727321195107,6049.919906039311,3095.85156525622,-4201.624284293222,6511.096903673572,198.51145817950623,4233.765079494151,4742.538692481026,-2329.4859727388484,5778.742528743709,-5968.829764153641,2608.430068796518,-4872.333425362611,-3649.2701010890237,-2445.423352079058,-5977.537779250569,4021.2741574964734,-4610.174667536541,-5202.558001316304,-676.1559739597935,-1889.1687378368415,-3220.829764133481,667.830678540483,-5709.879246492726,4561.820527729443,-2660.3488814773737,-4529.365472035966,-2387.549617053309,436.45851285683875,-3259.371527295617,3333.723334492044,-4730.801501352048,3595.6525655804994,-5.6266421260396555,-2288.4849041225198,-1744.3399292069348,-1616.031555294665,-2868.656948952832,2923.2488202218674,-3494.338943900568,4863.072822660378,-292.97747605758514,-3475.103204749648,-3849.336299593614,1578.4684701552912,-3861.8801176259813,5059.28066801791,-2969.5720979225125,3216.554187455992,1877.9770091014307,-1367.8875296319127,-2778.304533156813,113.53717698598962,-3487.9634194242026,3818.8679880292875,-2011.6030008448809,4961.981459201887,1672.9306015656434,-79.68920272019369,-3675.0434938605376,1603.8435704410979,-2429.857090563897,4007.16398096638,383.66539700246545,3204.824972293948,2052.4348092674754,-1105.7950116358477,-4179.190185062202,4563.948900188963,-3200.1904685937243,5775.582979005183,892.8466281389963,2105.257174247834,5314.166796628024,1003.9769642541787,-5601.832856611505,6084.896936295361,-1662.863551246919,6112.328064055272,1784.8980685371957,416.1447983373914,6079.034736860493,4379.559658866063,-4351.710695731375,4354.62467053366,1474.5905173813999,4235.518284117684,4484.576213845607,-572.489406290244,5465.804437081253,5872.804550171682,-2617.562732765746,3998.4576505835826,3505.8945776400196,2270.961650049981,6618.350130146713,-3225.650001506453,4173.482349274983,4264.643805880416,77.10164494967,3500.271476483854,2542.8228563575435,863.1687920793747,5869.4011345791005,-4356.501940360279,4024.086741406373,5770.340893204142,-687.1825888282167,2927.601062298972,4919.773286258013,-804.7472904599065,6745.114296171442,-4748.289100396903,1569.794700637762,4334.5295951521575,2320.9977780610716,1325.896692108311,3751.0705187837266,-1611.8513172157755,4802.210437908706,-5172.007110658443,2197.9244300632413,3933.0833565834473,3693.4765404254968,61.1625698318544,4753.475069100862,-3697.3445828528716,3656.959083791773,-4885.254918884762,151.95914630275865,3285.1771119729333,4005.7570081020194,-1687.8289662539644,5840.736333421179,-5401.7484793692975,3947.540257666083,-5622.833330614556,-2805.3527922602725,-1536.8346459413024,428.30874968239254,-1376.6382137951832,-488.21598255750223,-479.252632649776,-1464.0567249973878,491.37627970970766,-1370.4812685840434,-550.0844735698882,84.90168936906457,-1452.2876641887656,-557.7909372783847,-594.1504637267486,-1654.793513262,1226.8111227581646,-1480.117440349749,-619.8072945216381,-688.6094585121157,-479.57026073995206,-847.0665152612615,468.9329274297247,-1371.6625216105383,939.7927390414146,-355.37052638154466,-1286.5847888622766,-163.9188700363859,-1122.3871728624842,-1488.5131967681532,1118.1645005553112,-1932.5763641853482,1905.287833118761,-431.8982101775116,-739.7690355924772,-2002.9051353477744,365.37072663405195,-1518.180880515667,2198.023690089425,-527.793086256062,1178.1244660645098,1037.3313578702957,9.682760278471605,-602.0412340163348,-244.6303016974441,-1740.549908918116,1053.2607743865656,-526.120550366842,1729.9385964852388,255.66234330668385,738.7863321170336,-1190.0128057159104,664.2020141996725,-897.0322584155039,1227.024394608551,653.8105157159451,514.6256000531077,730.5906639027608,-560.2913526286574,-1509.9424823667327,2101.4110077971527,-1977.9368647280417,2252.710459313407,229.25194128833232,1108.3954119226833,2332.71470924181,243.12031099728767,-1311.0393920358506,1236.4846732316912,-1007.1074443114736,1487.7829797359263,236.92251744287898,298.9476172799107,1512.0518396665686,919.145081789944,-689.8686413439225,1404.8017363889742,-199.6775450830212,1224.2960263896018,758.972598436422,116.14941579706613,1652.6834670391108,2045.070985041649,-350.0635403485417,983.4239084147634,870.8519642419683,429.69996954784585,2092.6702226012276,-1241.4260721514213,944.3528402088369,478.5387769655872,-187.63503611212886,1626.354055322635,147.42160125852615,739.2140294104795,1553.3237640004172,-1333.0240019589532,1528.9847994152192,2231.7959487272446,-868.7063179834084,1987.3693728150365,1505.411587202857,254.578284041899,2814.4101174684006,-2105.7979012027245,1058.9575089069228,1632.7439911412473,942.4173744210132,974.1624464003928,1418.306968590784,-518.3426444919128,1771.9198774563315,-1964.0360473214641,1085.4131520826038,1903.2613810977653,1689.3235913250874,292.4730658741654,2255.52545990803,-1763.2339970327826,1693.6311792501983,-2474.9574101886265,-326.03768464351356,1506.4034752968587,1229.7939383420166,-256.02913464984886,2977.3371687599592,-2151.2445018453577,1965.137357866221,-2805.7817355055054,-1200.2923101682043,-231.46846278545416,-2454.3178581233515,1508.345210695859,-1806.795642055516,2479.1307430164825,-333.51611331696984,1762.7912238246718,1567.49650724648,278.480655728663,-1545.9690942537281,1354.366173109525,-1589.4127489103626,2160.983666682501,126.20835967268613,1894.5024008663515,2122.499656843513,1252.5237735608168,-1418.1306001456069,1492.3970092669208,-90.90561803420101,1765.0354966093298,1393.4623901702844,205.600374047255,1711.7604820417046,646.9381904778909,-1663.679089817779,2724.271745588445,-728.6601229614878,2211.823898508792,1826.7854076544077,-416.2781488482949,3224.9863589362385,2540.680618707441,-1351.5356949372765,2391.539510241082,1056.2829255269376,735.9846106361704,2850.218387243095,-1231.129763791344,1606.6404615201864,1418.7856369326937,-389.3796089387466,2505.1143111652364,518.1417255939098,1044.788939235384,1887.7002875967107,-1205.269551271915,3040.8788273519085,2164.503268057474,459.0915421725992,1430.2208637186427,1644.9569191426115,-385.3761176367101,2081.863812535124,-1729.5233539551518,1484.796564851189,2601.123196502444,71.18731069554883,1265.9659239447924,3434.644348950987,-1337.724257592186,3360.80525211846,-3829.072301643503,254.03004084661103,2396.8867650668476,879.2809585628878,523.7724678959551,2590.0952144904895,-1112.5849489028515,2427.9273534743033,-2287.493320282887,-193.76173116037933,1233.2788994998941,1787.9095922012978,-170.41925686954494,1557.7710645393754,-1522.5858247796875,1533.7025379781762,-2004.2018043900382,289.3188067590572,745.2532335033056,2748.6170801492153,-1425.9296025393635,1647.987549649933,-2781.6279502018015,714.6274085668781,-1624.130356933515,-1466.5682280414405,629.8071327726599,1839.5800371066769,-1076.1159746069911,2349.0537429676633,-3083.1521880409323,726.5170879699738,-2257.053758022811,-2105.511349881771,-69.68539696084491,3135.829194664731,-2445.6321459989063,1415.4733509013442,-3011.0271771317894,-989.2208935250793,-358.349033308587,-2230.3257674509405,-1329.1157455728116,1768.9752164573936,-1749.1111676821397,827.0270442686826,-1947.9699868602142,-692.5846869675356,-1171.5187233938782,-2063.1348891620664,-1815.9354962371021,2056.101650662249,-2591.3691715219666,203.92705676448293,-1660.9203641007293,-1732.1466557376907,-60.75336358766481,-2345.783558267048,-2163.9948826008917,1617.3199037229574,-3039.103305823134,-736.8924673690735,-1939.1110110065406,-2893.1404185322904,1292.5726366715162,-3334.651393812327,11184.399923016863,-10404.898353930019,13311.624705891469,4174.264554101094,8930.086780410458,10463.702930618194,-5574.7662054922985,10865.969832739733,13507.86065048039,-2193.650107413051,5702.546061212591,7275.465381488723,325.34354299268216,11172.037267695821,-4728.6773606533625,6031.907971884615,13785.274048054263,1368.8667721702886,3488.9275493560344,8766.525501442604,-3417.661085859001,11084.67830404213,-5810.569472087314,3377.091091754988,6687.518120137411,3936.4023769590367,5469.624075420351,6007.445298365242,-1599.258903155945,6865.888419671612,-9074.878160343625,5614.12461247706,11746.307557935972,6746.519055927119,-460.8229573863955,9444.019328289141,-7983.599564192088,9241.072121570596,-7443.548945500551,-431.3789122017474,4595.584093130721,7653.617325746376,779.9009763640452,8333.409882289136,-5854.9840296021,4977.4429466064,-11178.955945723854,-812.6596438919605,1822.3007833388592,9377.794052506784,-791.8442148798777,6959.368968352743,-7455.317845405584,1124.3996690489757,-9262.960631119146,-2385.9395672513965,4344.429893741439,8160.532287301205,-8079.020623059934,10305.545880502834,-10882.2307598232,2011.391899880803,-6638.2122458535205,-9058.20503906934,3897.272941447746,10497.360075831763,-9867.749512205559,7870.583057787091,-11708.626652691339,813.0198694467872,-3515.7737387296993,-10390.739290711485,-5035.351798387241,11974.64357919003,-9856.063401517835,433.24450887987405,-7582.342653185949,-6877.993149595809,-1635.938607867602,-9038.395770780637,-9040.719199602518,11368.651523085768,-9673.88682531245,-2817.30971690965,-6498.718212031345,-10252.479569682886,1099.0551592901875,-8453.432871827123,-6616.05607743329,2769.3482380639584,-9592.662957196686,-1539.3194818586753,-4681.6474751481965,-7467.544896541087,5451.618995090941,-10620.182475720168,-10775.732479368404,5620.581549110552,-6688.133005463149,-8403.085982922259,-1494.121301103317,-11853.294950196469,5700.051862432299,-5425.440064094323,-9387.601323315954,-1848.1973538216594,-5876.045788249225,-6570.660779488813,909.7603102642856,-9412.105689196516,11746.047526653321,-7615.581481850333,-9334.020841993348,-5454.878704833087,-3655.776533917317,-7850.768222451234,4648.290046065667,-8805.781967103034,12058.210954530727,-4547.298430767599,-9606.186307357531,-4095.4612636262373,146.0716399393541,-13823.714686176747,9639.620486110834,-9802.390151448162,10542.57186116057,5385.397718069608,6729.895619846007,11683.54864107833,-7716.20024435382,10422.399895832572,-13061.242351669018,6833.745161482723,-8875.599673316403,-9537.447848286829,-1634.1550079457202,11238.619091130255,-5890.358138267184,1920.8432371799586,-10453.854268626494,-2749.4406581899475,-4101.095340768761,-7067.386319952384,-4369.269667964005,9907.236012959003,-5037.775531070127,-1649.1710130360905,-8357.092965230448,-7000.891340352231,-253.40487236575382,-5136.065235109933,-2290.7751913929587,3304.8246172936138,-5249.20778516849,4569.365181775223,-5939.675978433461,-3929.2509887396236,-1169.7497022448297,-10368.068696660588,-6312.102823628694,7304.196912558844,-5527.205827311084,-3178.5469903157464,-5771.606912311126,-8841.856540049672,2206.3834995610387,-3883.8608087599187,-3952.0822207674364,2466.328292454037,-5745.619430746859,1603.8844644386927,-4689.405797869493,-6061.479829599768,2325.092035178048,-10240.047616088152,-5363.938914467842,960.4576152772031,-5041.572655997748,-512.6266725088117,-914.9923749611826,-6208.535067420231,2880.7424515665107,-8163.358673390772,-7748.7715677720425,4103.868027615625,-6154.912486858623,-8828.409501146858,2041.600658561867,-11215.883011027287,10003.412419727041,-3194.5544732283297,-11075.716858728923,-203.84872916397035,-2631.934061354821,-11934.29609149899,2141.9583605881317,-12962.720908424817,11244.89933686562,-541.265334168872,-8519.215255081719,-7379.735341552657,2322.756945941326,-6914.46144118468,7617.495354178087,-8550.400307049877,10841.172285049219,-102.07274222690103,-5661.5096586071195,-10309.471398557518,5345.177166223643,-6241.631022927138,11154.739818134807,-4706.806293279056,8594.811374514044,3414.8011082233147,-1786.7061596484,-5857.808212851074,3625.73116511452,-8506.723160160655,11723.44726852993,-4012.410645759788,9261.831987011654,9208.965638826643,-1342.502967026826,-11741.007063793437,9754.647227661704,-4559.890838802715,12838.620289102004,1633.6351396336531,3368.4179617256555,7890.740095577839,3100.794115317968,-7931.311245817757,7457.00245333014,-3670.701445506095,11575.827116963494,1748.5313372286118,4833.449601955955,12895.005762950188,6160.114760055585,-7095.499497872593,9655.678467939957,-1805.820060196811,8513.823338789814,5609.769689604367,1789.9080482999088,12030.646246338507,7883.94694108098,-8243.841615121919,12547.433792276002,5022.087791807354,8188.660193244543,13414.76012866243,-7761.839368497862,10208.35346441992,4219.178036772275,5940.15240044623,-2740.962748191094,6768.455097001588,-5997.230168880875,4450.841556785881,-5468.397735688055,-3631.783505348657,529.8892216015047,6313.283683487638,-3999.1171936265237,2816.938845633808,-6245.54289589872,-187.08946793961877,-3145.845847844093,-2706.2699508506175,-1230.3025133652454,6279.762007364396,-4125.174920452331,1297.9553051514222,-5791.85084658253,-2034.2500682970676,-1628.725438529329,-2614.967603571837,-2340.4543299809848,3634.9915405115935,-4125.9407567663,3343.0799611985694,-4632.8311535961,-2024.9993285783917,-2538.1728942458412,-6387.92781554449,-4681.015544717671,5362.4108071499395,-4560.529374367671,-1153.3950046835898,-4327.265159650248,-5591.2491504745685,1532.4513327814875,-2916.948770183548,-3736.506309456568,1342.9042784680962,-4648.792763036392,1042.7668141499203,-2392.196448001908,-3355.551802706346,23.66877378391291,-6333.175440121807,-4792.403013731622,59.753325068310915,-3882.926521006981,-373.4369549049111,-180.15539637690927,-4189.160039722859,1379.947399621819,-4572.703468823321,-5285.851369094975,2624.5618819043857,-6645.2772117611885,-6271.9637094539,44.06401290206759,-7474.382181817771,6806.28053698669,-3481.625953866521,-4901.436571992337,1237.7572488600035,-2974.9067453114285,-5020.726517513856,-767.9781003722064,-5650.849042961154,5205.959517854125,-638.2116129980063,-4692.503410954496,-2918.4562116743728,554.3802805544851,-4213.708347804399,3414.67166862045,-4060.9307858413713,4412.245150320032,-50.40314195750943,-4312.052557350698,-5046.690555680369,1622.0997879439224,-3586.208666121249,4866.583350000852,-2944.533499220969,3645.893683821203,1025.5912869557815,-1769.5653786659304,-1901.8153443005772,169.01873396333622,-5697.808431259075,4854.334571450649,-3564.0815533502137,5754.195124395447,3972.2499229830855,-3106.3171928782176,-6909.731979633075,5160.756479928312,-4275.05289330924,7827.187140032309,-979.458598113546,2927.3627717060226,4674.9931218367365,1772.8062007123367,-5398.411317865197,4244.331103190383,-3076.7942788767505,6492.192351384493,959.5317680030294,3604.2555302912615,7869.673571265844,3811.0081342952253,-5816.315972583044,6047.786821924864,-1978.5832463379793,5828.25384192876,3591.72415187401,864.2901945392368,8347.553191753868,3291.659559009595,-6093.528081699939,9284.316268471677,1404.0493919958071,6326.198850522441,7753.763102941655,-5128.241108183485,7040.827639760064,-7627.954707240984,2529.344944629737,-5424.216986280968,-5260.349862517543,-3421.328182140268,-8944.60639176744,6292.567375566941,-4829.914364444939,-6216.982081380958,-1785.856228517781,-1881.849518369368,-3492.1090443489747,2546.2122948152664,-7717.655476168638,5433.801604502826,-2752.20160939679,-5250.998350051153,-3347.7441850143387,719.6019814791823,-3124.3324251533527,5006.592814960172,-6061.2551389308,3972.682481091494,218.73815456972147,-2886.8947352659175,-1693.3511499092156,-2804.5619391768014,-5011.178612705495,5065.3453817616855,-4752.058306061008,7679.81511644573,701.19765021686,-4526.946359924412,-6192.337646838859,3005.0385620454954,-5187.01729117993,7858.757145434561,-3570.73723484088,3244.749000893797,3121.9553943561855,-1293.8893195698856,-3918.994641143818,531.8012702843134,-5396.029447391076,6213.379070129408,-2685.770734740747,7520.302619751129,3311.434882338512,526.8893435931914,-5370.983560595944,3346.827832413208,-3662.902240694473,6055.452177281109,729.9050115322661,4338.375476582441,4095.2190491322854,-454.909152731218,-6736.334077552072,8303.914704444904,-2836.1849968697134,9080.00749218804,4097.5048133233,418.6194911213179,9102.322946214037,1666.1547371521565,-7709.4396458136125,7718.476788883841,-886.596125253966,8682.080445944464,2706.7105107564525,-690.3619421481935,7476.344737069156,5725.039238828733,-4609.182528434889,3758.3656648545884,1345.8052244465969,5653.6324254443725,5972.052628523093,-498.893063148098,6644.267791497089,7901.613111663443,-2590.6772559930914,4339.8894082669785,3996.038019372985,2850.445193486864,8908.278168333,-4296.07236630337,5559.782792621219,4576.629133478817,-975.2875193994319,5760.952482741408,2636.2084654719447,1649.288870567064,9269.296152032599,-6703.583778554448,5804.493271669303,9752.760253333923,-360.63480591714324,4503.325727031195,7549.111928938924,-2257.203036248532,10348.916796347568,-7524.505609570246,2162.121355743887,6554.156189921308,3358.890707384836,2659.9373679413684,6356.712460777038,-2838.7260541948217,8294.863138797615,-9277.444772949544,2721.700598469298,6476.996810417384,6382.857644922757,-193.56096502854598,8946.352928940385,-6851.84931757422,6149.503926848691,-8941.06293789563,-1098.155957205894,4802.569836855471,7918.889253256348,-4674.529540761976,9194.990896280953,-10638.24174380523,4943.74932954729,-8617.148039184705,-6334.181960012589,3038.168445438647,9424.253899859441,-5801.910411273123,7000.266811922404,-8018.797857185437,1885.6785147236237,-5654.227652331304,-5810.037748187249,-1583.4788765023832,8546.94343606343,-6711.313715013705,2617.964846106554,-7787.392552497951,-1941.3703139619038,-2499.2319680202295,-6154.605694501287,-4387.074327051361,7669.327104550812,-6772.472052565007,270.3856799043406,-6348.257940521927,-4679.527976119291,-222.38584839642226,-5493.805423115979,-4786.555474129205,3853.808145980798,-5261.3819760344795,961.9320645990629,-3925.137268122612,-4335.434829712626,-328.11484333003864,-6418.224387674397,-6791.964108253422,4380.813299571084,-5612.594137600942,-2712.953965733718,-3275.727420340723,-6679.440474448669,2845.6896873809314,-4786.4232303911685,-5445.603297753192,1252.315490629499,-4988.406795329576,-1790.563992627307,-1249.727265554066,-5431.770071048035,3222.8290006372645,-5523.42389530356,-6109.8726126540005,-955.0283424711697,-3819.6015896616664,-2660.007196690445,1510.5774447101594,-5373.20826163546,3616.142388799068,-4059.8285491023084,-6037.773153644424,516.9710053763179,-4941.088834321751,-6689.736210236877,1331.4198984449145,-6670.861188455393,6638.163869234928,-2754.173909726915,-7253.103211942313,-1556.1441163120212,-2042.3766751887551,-8284.417655121732,3052.1178185805306,-6633.978742965488,7808.368305694157,308.8674250051299,-6016.625066525003,-6084.384231608162,2337.7099107954696,-7170.611261329826,6617.515854129248,-4129.072956701538,6961.856902464022,2290.485842510308,-4622.959490237259,-8341.687342402145,4490.933605690206,-6105.564779651724,8449.94360546666,-2061.332870082362,5230.082338613021,4019.305502289409,249.34719211843185,-6013.168225205103,3971.953711590025,-5160.2286885877365,6841.704443829372,-166.93042089839355,4771.8938336687315,6299.344451077754,-332.60918200150263,-8368.55844176206,7784.652781246481,-3000.4026218096487,8504.053884706726,2063.1086690291163,1923.9147174350119,6680.748381476815,4263.077607434037,-6078.535205007741,6259.014113210516,-1268.887918009948,5972.038458691059,4206.6405267175705,1144.7221215519367,9016.157899616914,6542.99204639311,-5392.635156100086,6611.458830995838,788.4401176568185,4457.635256354918,6538.894887760944,-1223.4970030000486,8222.382232528073,5499.972779852831,-4076.988285177249,8344.198358084268,3195.383593779205,3424.194879822536,8153.121736699099,-6021.589317931174,5925.902219518919,-8505.085545891117,647.0507282894087,-4509.156366851579,-6682.114798224509,-646.7226244136682,-8743.822389198021,7424.743611901025,-3801.0971676041754,-6417.360694215399,-3333.37524171452,-374.5620754456195,-4754.93534425212,3929.1401292037567,-6859.561535674665,6422.820676256022,-744.0923244254259,-4991.815951288907,-4913.941608535071,1977.4634477224658,-3809.7614735298503,6466.322190873549,-4634.324421642617,4284.701975393053,1636.753316846753,-1584.3178074830573,-3161.201481019552,-1066.1329243377195,-4024.9931237283076,5073.586302874299,-2707.4448301721836,6194.804844977715,1710.5648783144156,-2880.092841417715,-5829.405694233534,3287.9235535730927,-3805.724160171151,7310.8416907589935,-1845.8251545188623,2847.385140379476,3320.7059849665775,-549.2726095657115,-3741.407835150725,940.6811518619945,-4118.322286607587,5416.366278383266,-1075.8976204158046,5552.027911052022,3844.3431954690764,1199.9020897667533,-4669.858340849967,2568.4885358422866,-2702.0038245875426,4942.937525711624,1864.5059332113797,3633.798193476585,3762.6217589725748,-80.98303747621048,-5581.668147683116,7018.630052189211,-2389.8944033103285,6994.244204321294,3562.5572653887148,357.03865644361986,7438.787484304181,3398.009179377884,-6767.501498603795,8348.454100146777,683.0091778418218,7332.156960159625,4716.811130938169,-2233.515245472334,7896.073377133767,7334.424305821676,-3793.607530704231,4387.179929233902,3466.523577428348,3638.0041678885073,7471.522133078915,-2808.298083779258,6682.013482925748,8603.946246240015,-1331.6356482538886,3524.5576055317633,5741.617461369948,523.9412801960334,9412.75339383335,-5368.58539147149,4316.580651643193,4973.66628605762,1583.1473343335542,3961.5154487507325,4131.635228535539,-899.1699164287911,8052.779806769853,-7411.810290264026,3807.2622170822065,7951.2456993915985,1463.918585821369,1450.0965379366503,7631.111131371831,-3857.47200656519,8410.831959595414,-6614.891609158463,131.30185583352295,4542.808480920128,4642.751496440778,458.18547213942384,5232.838913440309,-3937.26738021895,5888.914093911631,-8204.995777398242,676.1312634404849,3675.0004098168456,6489.988586322048,-1693.7598746852482,6253.300395592314,-6329.704595415598,3537.311386802292,-6929.135018933861,-1740.5758708319686,2791.3004265409545,6503.69407646013,-4773.375204179007,6981.246907410559,-8970.96709211011,2741.030187422077,-5674.681325160948,-6223.452752157831,-2167.2159961196444,-1121.4141910107228,-1059.811186162106,-1855.0380886808323,894.9278796871856,-1956.0262641249074,2054.476818127409,-731.2977564824307,-1119.800893894099,-1446.4362338286658,2.840570252323687,-2362.052464472492,1737.6454683926404,-2104.4497509199396,2404.540188183888,396.07621669916773,-693.5773053274016,-2017.1135023240454,945.0167427964959,-1942.3014781920851,2369.011745299896,-1234.2890523879596,1435.3870913380288,1212.309891724536,-33.91512466208246,-2259.404414174898,735.1005335910202,-1730.3797159101757,2901.4812028052766,-341.6811938161369,2140.8894519513037,1441.6934924141287,766.402097945167,-2852.715484855651,1693.0292943683469,-1080.1955513732325,3019.062672424683,1032.2553548727149,200.48666292668815,2333.7515617724357,1616.147798078888,-1031.753774759109,1176.547703469924,-1212.883706566119,1261.5540427486308,1184.859785544507,1063.0605404139392,1561.1791563258735,2546.4594567866043,-1184.9529079346942,1407.004276257974,19.0906188545583,1003.4268575118144,2372.0001245663607,-336.6765002041822,1309.570683579146,858.4156141217843,-1239.590189925539,3779.06355407591,-506.26903526635556,2128.7140095108125,2088.872435108779,-962.230971005444,3425.5889212735183,1139.8327469624178,-872.7158154178775,1722.6601642011124,129.44594843519508,1309.8485486779332,1158.2892425815353,-1154.9981570094365,1861.2920284691181,2149.5383694177317,-133.15065016611447,1492.3718121360973,1347.4784293266491,389.1357480704329,2325.8580357763026,-1454.3912386083719,1655.1925030739267,3057.7906785573095,398.5106225772529,596.8843034015755,2181.4209689074783,-584.1394832462126,3218.0267593135413,-2263.5815984753876,418.0305020491562,848.9142099214973,1181.6745008628004,1367.1697211486323,1382.211493399263,-578.6178834898919,2417.889535621602,-3148.084831500896,874.8409405077175,3075.4656571174282,695.0459621333946,573.9949349159772,3211.524951833642,-1730.4885672362502,3288.6220929241554,-3040.064850787232,-493.96410336445047,1040.8589483302724,2952.0307283862367,-315.8520328448798,2208.260920302144,-2108.2758371692917,1341.8872231386172,-3532.3601796982553,-437.42432605930094,942.9688519551385,4073.420797593317,-1778.3666684249652,2440.113426350771,-3617.1328674557844,633.7465012638904,-2763.349554990039,-2285.0038435783986,371.64157262367917,2516.642817495458,-2676.462672997785,3311.1658536387954,-4069.4811433637424,594.3213030097058,-1938.866454285349,-4070.0880877578975,2007.9367034961492,-2981.095632954404,3231.482350490377,-591.964637828316,3339.752625170823,1687.223223432555,372.93835378600716,3620.3381511730645,2541.507098441387,-1306.794381514109,2343.4957915212044,384.85942012724126,2066.410785102044,2936.8988226905244,-444.7451998173101,3430.6697095488726,3183.1833206682495,-678.8119668740767,1670.740576027717,1985.5488382708586,899.4643203541298,3934.6576973345514,-1976.689745214858,1961.1083579781903,1975.172742151868,85.78590075517207,2712.5576602353176,1073.3202467283309,402.97478445651495,3747.4756560600604,-3090.158763905183,3235.127523397389,3799.5159385766874,646.3057726664006,1532.5559952339654,2996.8171963609475,-1492.4494847649316,4049.4741983776926,-2864.4663327381595,467.3434400388022,1501.833125561301,1730.1010085340245,1653.1976960417887,2082.236382054081,-806.1513412953412,2301.150618582615,-3389.633335532995,2108.683763480033,1733.5636981764933,3033.6380371198543,-337.8595905054832,2570.3361879987424,-2656.2656562443317,1675.3193647776257,-2728.6744994456403,60.7827450427086,1866.681870780707,1866.5202311692678,-1381.780685485162,4735.094527161079,-3967.51418274704,2795.1943568586667,-4607.823930026255,-2760.8922475492664,2287.051161768772,2481.754310033459,-1376.0394699206602,3378.2387744429097,-3284.843101084526,2594.108803389844,-2868.703812814387,-2193.02430520881,29.765844193192606,3679.443306886429,-1664.8167009250033,1192.194138618307,-3277.7980608436765,241.37647350337738,-2521.3024447856915,-1230.4412645129692,-1177.5453994085815,4574.332269237093,-3556.66671517781,559.5284113107523,-4750.2098528367305,-1355.3401945239862,-973.9688991425608,-3300.862463610759,-1515.1101427311478,1963.638980300304,-2508.052423535026,1686.7328497868966,-3890.9342657701436,-1346.3167438984399,-1365.8861924515777,-4334.823020705698,-2296.9086247697296,3969.798882590453,-4313.608427559331,-393.99791946762866,-3242.0900273522666,-3581.9839444320423,1320.0325881618535,-3342.945681151956,-3439.5244209426955,1009.5226674760925,-2613.9367882675397,-606.5942722403338,-1624.0913982941834,-2311.3811004021923,537.3949880700325,-3712.333863505019,-4535.637649688031,522.5373331179394,-2841.3085196878774,-2456.0493314189894,-303.038072671126,-3897.6389260332,2265.469798047088,-2633.3864781543994,-3846.2842842517034,-236.1980704681048,-2792.6717212799913,-3471.014897428045,209.1327763602626,-4647.258227029723,3820.37903323079,-2351.106108519605,1447.524260603801,4879.078155470743,-3318.8898174837477,2970.956527301321,-4145.983790086948,1090.0785911829007,-1968.9158986686907,-2998.2489456948565,-1675.0424354606203,4116.793013200806,-2711.71897258198,125.68155236988423,-2894.0152374735517,-1655.170323567696,-800.3576375938292,-1891.0103536274387,-2755.371649230974,3639.4302115302394,-2561.259246932701,-726.3823935270257,-2344.290349770713,-2707.332013342165,-0.7851202722094968,-1539.2016585687447,-2011.8979053580683,729.7309886159778,-1944.1149082585544,835.7597160331002,-1319.0298780398032,-1075.7395877153003,-496.27437556018594,-3110.571692641407,-3662.307204728968,2223.1714874979693,-1877.2004472285307,-1597.4903268302787,-1351.7543452274267,-3456.6767462560147,989.2994800467468,-1428.4829711986904,-2475.934297439074,-104.73124008237619,-2121.61099558123,-475.0703851404405,-472.61939516772645,-1996.5430604910619,1538.404923745401,-2898.6923940118663,-2640.9218327097615,-967.4380836144855,-1738.617549428785,-630.7991091418985,711.2164367110909,-2088.2399889378917,1676.2742716382031,-2389.8629193777006,-2705.7594176760017,349.7527178023729,-1971.7019112522594,-3592.6700881671754,792.2160482111049,-3264.8612112886244,3340.9453070173536,-717.6569893042333,-3507.2558100793453,-285.3589205108856,-415.441155018304,-4086.660702973696,1364.0787531278693,-3307.16746565673,3345.97544511016,917.5041805367309,-2612.5269915317376,-3459.2184398895147,1906.517078047238,-2725.078977580117,3289.426400181661,-1002.9227643563122,2759.5701839942362,1281.0605723336748,-1914.18656990815,-4394.039947435301,2506.9025498694873,-2010.5385358988758,3945.221623175365,-274.3742384129946,1997.0204726670358,1665.5426873429979,618.2799138052605,-2153.171427984004,1927.4533639786541,-2094.7743467810733,2791.0996532518416,36.43349796111852,1898.7867979265588,3347.1259065849845,-98.72008107894362,-3990.318363378177,3675.520958840635,-425.4437330158735,3721.5397861658143,1303.7069148724486,552.4260942359879,2579.2282681531424,2260.0503710056882,-2587.6753113186724,3015.5503004887123,-304.37697970682757,2812.9305016427493,1982.5975066977758,88.90901702351493,5110.083643531329,3289.3759165437605,-1901.8731414980566,2802.2546141719195,466.403303650171,1943.14788693117,2909.967980500369,-856.1530649864553,4491.318042018387,2833.104230047932,-1913.2166213142036,3891.7845672266517,2562.9839148676356,1238.2415396265433,4655.415195769332,-3839.265969898215,1993.2399114421532,-4624.81362114283,-203.35354720600662,-1319.2470633765397,-4215.002855000533,156.27969049746025,-5112.017296580476,4380.85679908095,-727.3571332483789,-2761.9738304548687,-2823.6226522662278,987.5086846580989,-1640.4419532267668,3080.670165454292,-2605.5908932341454,2631.905279693545,420.0564807695787,-1905.122401181221,-3112.59883404335,1897.316657555185,-798.7820350258075,3866.10708631003,-1283.3405236201693,1178.073297215829,1240.6361977452111,32.99413843096795,-1207.5448103930257,-606.0716195519799,-1660.6277856787062,2249.2315574195386,-650.2462173300391,3015.503043092323,1252.6102297199081,-863.6607554879756,-3147.009677807575,2093.2849867744444,-796.6541219304304,3914.0866429615935,-136.9880550178077,368.4283010118247,1594.2693225682638,249.60428652429096,-1500.8565092611955,393.5390288273625,-1672.5804462137303,2622.55771002491,-86.00508057371326,2561.3381956925177,2433.1224613111835,928.8861974164902,-1821.9173259978327,1038.8797913939288,-995.2037674584212,2134.33786229869,1124.3951684589565,1715.4628619527452,2147.514591311784,299.03927829148824,-2832.835715985705,3724.416302804595,-106.12495927201508,3222.5872718614287,2715.789636633225,-880.7877050115258,3808.0096198462866,2235.412036503138,-3344.5836452265185,4278.260832553424,1437.0912076093773,3772.7976139924513,3051.805645610046,-2071.223661745118,3824.4673750497536,4225.357728790964,-1330.956366809899,1645.896598416933,2398.815371194454,1342.4556277900879,4352.441696500309,-2152.485448264502,3367.2260641561993,4568.710890207616,276.06734127129766,905.1848558796091,3358.109893576793,-598.2819773574001,4927.851746289416,-3184.928934819879,1895.924844447303,2267.2669904463364,1112.1379935163707,1654.0731880122182,2734.2046362873784,-1093.525109102724,4518.4333328876555,-4706.604378532694,1266.338407744318,4079.9431829281866,1745.418464507351,-232.2915801920717,4201.711934843464,-2955.2073524303023,4195.551555261429,-3601.637762074177,-553.9039304831849,2168.3211411407365,2830.489528700065,-372.90964776120336,3223.3574224905788,-2835.0643639547443,3474.81736897243,-5246.713251041898,-735.4929072950572,1240.255469861887,3906.9892130534763,-1695.0632112066573,3528.00696109106,-3870.3571989729726,1714.58935899986,-4283.09545278807,-2004.298310991252,1036.2989165810668,4403.27196214094,-4203.100532238148,3379.6168692505216,-6163.662560124444,524.7750676762953,-2383.1131125429993,-4847.960007232163,-874.3211276429192,-88.6754210186391,-473.94725721661007,-669.2910767192307,-235.29256730742736,-933.6002407658136,629.1313999174386,-279.9684670577676,-310.30400006191394,-502.03552551669054,215.33619497562177,-482.3345121704298,593.4584075898215,-698.5581142718784,285.18493830545026,-10.035249893228865,-168.76907685924857,-628.4311932779187,406.91228025056375,-173.82375919896845,736.3935615900687,-508.6787011532133,-102.93731126979765,118.24890818609151,286.66455422071715,-539.8563742761769,-219.47619499201755,-341.95305340656387,775.2016720603567,-146.07757024503053,975.9503464693794,184.69359544718282,242.18051774971127,-1059.0872018023315,422.99049185061426,9.687520070855726,1153.449099827891,274.6655032923986,-425.4607055573921,483.2820059896238,653.3972838828449,44.34795511101737,-131.89641376983946,-601.4044812209484,226.26270965111144,142.75814240193267,849.1006951341753,301.1050495350687,960.3248461844157,16.620366334037726,-202.84128715496377,-134.32548375461397,107.16954893736613,737.1367730946874,153.82246053680706,83.89219321850987,-214.01201261123697,-463.655087720467,1701.5347992494621,-453.9634886851327,945.1716228891132,710.2509215206487,-474.3531996133556,1464.5162625676048,-246.93819500152858,-491.98518537806365,596.8343425640221,-169.99084885683624,849.0776691639625,-185.73206589184701,-408.2707914382813,501.8876582959699,691.8768921797059,-83.31853725296719,205.8768828621827,583.8813721827032,265.220187184374,682.2586822469898,-355.63518224376685,443.17254111020725,1147.9503789021805,238.917685400143,-343.6242698048958,612.3053263501379,-215.93025812325004,1042.9431573171373,-489.8149544026501,-127.53171077441107,-375.3775869491294,219.83664802613544,672.5789880450318,97.35482151250835,153.22932127548847,934.3635444577267,-1343.2082938804554,402.30924314645654,1481.173648887818,-48.40012840472991,204.7268533105348,1285.9386328934193,-473.840187485207,1623.1904475995502,-1152.4785718421322,-101.36553561796018,335.5319346870217,1197.261039375919,-31.112307780886113,852.1331445000244,-790.8123265642421,1011.0043070206591,-2100.318261549537,-209.0693104210768,208.5184821295211,1793.220944009253,-679.3819812854372,894.7131821487034,-1610.7050012186623,357.49987668873837,-1498.3075697907352,-1233.0268558689113,353.9474513994155,962.3596494303924,-1489.4184634408102,1615.7946822838157,-2274.7551947621005,222.50741398108948,-586.5584341298363,-2388.4710615636477,1108.6318493930467,-1480.2316345498598,1747.2404654655945,74.85440927277568,1966.9282131959424,763.1866212715058,-205.57383863335872,1946.3068656594771,1444.5472499396703,-358.34976506685257,745.0685424800058,518.7507443767167,857.4117028028281,1784.27011648693,-457.12985689365814,1417.0181159715517,1654.2871989264563,126.27781511710577,88.0383398946285,1255.1242594383577,121.71566772086408,2112.998290381745,-1126.5442573939104,377.8388881639323,715.9202012614292,276.2900333703243,1161.8449499752255,475.7655252181489,-101.243358734303,1967.0209781179528,-1832.2444189482753,1507.102917969205,1940.3100503435833,709.49770415288,264.2709995698831,1712.3327492023059,-1116.0479083688133,2149.3037002410924,-1472.0153091183624,-441.2913106254608,431.6490616307146,964.532186863154,730.549142419819,1015.9792137393781,-581.0524645129785,1198.9082396971576,-1949.6207258291063,1009.1780974770147,466.57302726916623,1745.4010798690283,-533.4558371282442,1121.373657600171,-1622.1729562355304,611.7643200159886,-1321.5749338298451,-353.65308454666706,970.5891720682596,1131.0077831977546,-1405.888462007119,2532.9744269032344,-2692.7986793394593,1146.3751301301718,-2316.5542000873616,-2276.1407135195336,1176.3149805577846,1494.7232884769674,-1124.7296324128474,1543.6353870160292,-1906.2273696659036,1368.0132065171479,-1223.3169196814044,-1514.3840651801938,-382.53255154702947,1987.3737878487614,-948.8750195365301,111.29203878162491,-1862.443928091175,-53.92944822207028,-1114.301802624933,-782.0872840331681,-1317.2678706372412,2439.664054366547,-1943.8519574303937,-415.3226790935373,-2563.363264442052,-1237.9814710791652,-45.68730185691447,-1944.6889509387156,-936.0284050877235,681.7309983841593,-1362.3626967989808,710.1118406236308,-2226.159273865491,-1060.0232785142825,-390.3792083868011,-2672.4032988321624,-1885.9406132592885,2206.818429066159,-2426.7557641753765,-737.2308969274054,-1767.195760494516,-2569.5081009792802,1256.277989408859,-1946.3154296863672,-2172.7638574991165,194.87255780444184,-1473.0926272164147,-635.7118879245777,-914.0026109794753,-1791.0335581810423,841.7291149026396,-2327.705390176503,-2908.2111027416686,-285.2022693425524,-1497.86002503139,-1898.9274160363584,199.47011673037923,-2655.565067585393,1980.54756966813,-1487.7477612674384,-2506.7978353834405,-564.2849958354345,-1390.4905753302837,-2835.077158603145,742.0611590948174,-3306.2962492873567,3183.3559218742375,-1044.8193302586305,-1994.0932842324228,-1933.737214057889,639.0228559169482,-2246.512423213747,1813.3854903906326,-923.1949074920328,1626.0800335052409,452.2963059024769,-600.356036371295,-2026.6914095911939,1001.8802809592739,-1833.213459478598,1774.2431808500787,-923.193230587895,1964.1473846942658,1306.4028701576417,290.55257937689476,-2444.032879984892,1610.5517817023574,-1120.7609762943453,1993.6743941178477,12.16339930358572,1013.1053653455019,1586.0749346431526,705.3288752112576,-1906.3708582516051,1560.5103805441186,-435.6799716442449,1945.4828282571239,870.2444482560682,344.19557663383694,1588.580254306049,1478.659536362003,-1821.6414309911684,1797.0316397693432,49.950544610317365,1399.8491540977107,1204.1375542464802,-64.56695369786439,1854.5040474743123,1217.8791570463652,-863.6324992051191,1427.8399370713885,194.2958881310824,1076.8709045273515,1450.381462294549,-554.9758023290885,1599.6897792411355,1798.944856957923,-535.5272492247332,1198.5853243577997,700.7593959378448,465.2596464679459,1935.9973936487177,-840.4468809006157,1102.8742304179648,1318.9978467190122,-296.2051717576103,1404.4780509446787,486.21610184242445,160.1842172219333,1372.3989996651612,-812.6195919921729,1367.5571953712597,2218.360273883819,-660.7136439217948,1893.6776773509084,1620.2749562408808,-42.419324305627015,1969.4805341849712,-1774.5388133787283,1412.170666748933,2491.39228988819,283.98574052611,1094.373757640393,2413.1593122237914,-470.133968327033,2362.655286198824,-2527.7484052862483,851.7816912345634,2575.944404367016,1152.6369856893994,168.3280092930213,2670.5421319926345,-1467.876530856026,2292.9921905069423,-2474.062677049271,-237.35118275572086,1353.1501383052607,2244.3567409301486,-676.4888901586185,1988.6961920057124,-2204.6595750859074,1130.0709780559912,-2185.6076922117,-839.9784454395422,1377.0080007436163,1792.4383917372697,-1032.5451614908825,2500.6287754571163,-2109.689940105091,1219.8737412591513,-2164.4427172408145,-1436.459226466689,307.8762668437514,2693.254020901476,-1781.0508576440627,1380.8084216781804,-2575.3420265405466,-16.95549762868086,-1669.8750698522983,-1880.8192008838191,-286.3903003969399,3031.394489371334,-2427.631345104066,836.8723741551789,-2845.1145350199304,-878.5008951161781,-819.3902041269378,-2343.674393010321,-1314.4159945798447,1777.9512299093717,-2012.179497155959,611.1800416114718,-1871.064755720613,-1280.8348006906003,-164.8006497632473,-2598.5024382980646,2301.0318999836477,-1660.4245723355427,2302.3279516076373,917.3100947910707,1247.7870821942815,1989.9651026588826,-763.0488490834296,2111.1020179189645,2161.1476063417767,-369.8845225008379,1369.7278811747738,1233.689584301002,633.4854929386415,2236.1661094721603,-1464.0007395987025,1752.4141929854084,2323.719502012254,371.1948293351247,645.8855782579052,1826.2084431333208,-285.9879443626596,2502.1744665105025,-1776.580427593432,716.7657681606223,1540.3522948407578,825.631873977144,626.0049868877884,1192.766203524905,-828.9726157259479,1869.5294648964489,-1817.2846294709816,764.9732873476817,1805.2609227170774,1067.7448185402227,101.10838345276511,1853.8008922409058,-1339.1629883596092,1963.4161769956718,-1781.6565260904604,-219.19076490707516,932.4984891690256,1166.8561302544745,256.70624344276484,1189.9549067751113,-1228.7453495578413,1013.9626839006128,-1758.22029199873,252.2283318193845,907.7164840194474,1940.0660204163519,-653.1435099225057,1234.4524696205115,-2058.5462232987697,602.3968267677848,-1363.1265079759514,-419.34952196063,745.6522020561551,1374.8487523382848,-727.3161126504533,2121.5870208096894,-1974.2589471702324,874.0829604932273,-2140.002305891944,-1438.205982363393,547.587755006502,2474.3145365828477,-2005.7741334024,1862.6115433090686,-2557.1149466218267,319.2399248505576,-1379.2566061669677,-2297.447022450455,-726.2664287988055,2866.153345554591,-2224.926278143953,336.17592084855664,-2537.5742641174047,-1015.8830109243772,-636.3587747668159,-2024.3222539991357,-1606.6924855196748,2737.774366799892,-2760.6401561127877,-417.9184730713573,-2608.0700191472883,-2001.9475057570844,469.1320435965572,-2420.9461483893297,-2141.6593616560604,988.8759708994825,-1752.0665267659763,-159.0860410458199,-1348.7231082535418,-1925.8288203483069,289.1173857270737,-2453.452928633811,-2096.884949599069,1436.5770989478183,-2218.1459933417914,-1480.835838167222,-1074.962738158835,-2774.243585265168,1779.625094464821,-1552.1261024823857,-2527.4064691833314,-223.78185415062626,-885.3865647406676,-1208.8250863412118,180.87828686267085,-1976.2900069984414,1151.5187517166664,-1511.45536016294,-2739.5145558689665,-639.9267984757066,-660.2674136621081,-1961.0965521524406,886.0815026918781,-2263.003500843307,1715.4419016745642,-839.3744246626479,-1735.3896759432819,-739.8279364342484,-1037.151387777736,-1994.372932587672,673.3899683522127,-2272.486510013355,2505.8278228313143,-720.7712328388884,1715.7728105343779,790.9195804405687,102.25063350409164,1554.825736420108,-1181.9753375670978,1231.8568299524047,-1217.1733201180864,-128.89892581375943,726.9813581235175,1352.2348023316072,-26.767684957535266,1459.0494095227955,-812.5408915611451,762.4645229844518,-1470.9127083915819,-123.30375880139411,608.596689482746,1694.9982177999614,-616.6522957181483,1437.5988248216765,-1154.475328656314,610.5443397329811,-1336.7257219373348,-890.1504981091589,310.9103144928981,1687.827993824229,-1109.6070608765006,1056.7254642341752,-1680.2454593973844,283.9571984901195,-932.912064989591,-1028.3012589048146,-215.4681837772631,1794.3683458306277,-1057.285981635916,820.7922441876877,-1540.9123236866399,-251.43649163498105,-790.0476454549791,-1407.886227772362,-923.4102376346642,1385.930237033067,-1236.3855191961848,279.8598854010304,-1217.2247024851551,-961.4127153934735,-80.19157072325174,-1174.228416594085,-1036.5443905042562,1698.4342337618064,-1679.5661158246696,-103.21006306132233,-1536.7742035544843,-1265.3792349257092,510.38196260386854,-1480.9946188190063,-1460.9065804752813,462.17709672355727,-1089.9557448292128,97.60344247533374,-471.5316214857005,-1114.3413514801277,81.71426695271333,-1450.5972834349639,-1043.163611008745,659.5031854584231,-1123.7749213717962,-281.02901624696165,-367.7053984287601,-915.4332136945457,557.949124194354,-1180.9377843038558,-1399.0809621993162,622.6981711450566,-1329.539916032103,-919.5336669585399,-362.39535141678186,-1368.0874101421068,1005.0164985858547,-834.7685669283826,-1598.8569434871029,566.8364180833482,-1249.8375128602775,-1460.3593339853628,-460.2381382285192,-1665.7668018601673,1641.3238064513866,-751.5697146831812,-1868.28334907837,-879.3558984231739,-169.38580852503696,-1204.0121182081289,825.5171407715745,-1382.9589064422983,1132.4277668971522,-518.6984608812091,-1145.4802797998386,-270.52985154602214,-594.4328896491572,-1470.1724404841138,416.53726220593524,-1310.5525711981722,1685.1900876183413,38.75105526662355,-1569.481859097828,-1670.1046940613019,648.9650605352665,-1426.8805014811135,1675.3879203079805,-744.2602116185408,1100.6283859160967,373.9292956698688,-1534.4237684525408,-1632.3963647121086,1000.8301908971339,-1645.530850507163,1889.4686079262794,-926.4796461959834,1268.4049725709308,929.0711022174116,301.3201798873961,-1792.490547826073,647.4720754262039,-1072.1731387059676,1366.09209841394,36.989779828004544,1413.596797210863,1037.9279580458176,-507.00510745342984,2075.753694641109,-1638.6852030879209,667.2177020986865,-1855.8737295152225,-795.5350545113138,-381.5208261871778,-1651.9600727099464,-1148.146503890084,1324.851773150955,-1541.4044819539558,150.49799138482058,-1142.9790799518337,-1305.1169725883701,-31.892463155392534,-1315.770120130726,-1511.2819564569295,1520.268225811282,-1901.9848360105486,-555.3512664367224,-1328.011660116551,-1623.8098243487216,747.3291266175893,-1482.7402128863823,-1700.218012843359,497.3830009539113,-1381.4130294024349,-322.9558440413841,-548.1615617575367,-1426.0126922453926,315.64373876082095,-1709.0090430063046,-1894.5191450709174,641.9995046006245,-1466.608141196407,-1212.3037725642175,-206.0209845742474,-2125.453244971071,1460.566506384922,-884.3935404436984,-1790.8247546001735,-701.8593493853137,-679.7652404279384,-932.8233228662872,833.8535763128616,-1119.6476569323308,748.1498237517058,-831.4894482805386,-2291.89193054038,-848.1292692723227,-236.90166095699806,-1677.7402119185658,1091.749765288453,-1709.7170326270825,1335.7381116063964,-246.6536044333659,-966.177270291573,-931.5504057727796,-813.8515857886563,-1793.726839454792,680.115256832137,-1363.295465320717,2180.472371666043,-413.892113976281,-1232.0731752529146,-785.5989343040503,27.99263725914969,-1953.5137433261957,1053.4793930879048,-1385.107611067599,1918.5935167738178,811.7958215012023,-1123.8850238581924,-1908.8763746270988,1110.4938174207643,-1309.9610130507874,2068.9481833705663,-324.9379741342831,712.1069770961512,874.6629021428864,-1099.1735489214261,-2164.377698283429,1752.7762036621994,-1580.5816690365118,2285.4909587651046,-556.7212703063959,879.6287434331808,1579.4298704502864,720.6921809544258,-1879.1279706112045,964.6604427164051,-724.8691204540584,1448.709109724668,449.6526361616635,1060.6409251713933,977.456198734378,18.128473508406955,-2089.4986828855162,2220.1300656357835,-725.0846460372227,2177.1062722416314,919.0437033803064,-146.27775158167486,1959.2048833730023,1805.0029154794518,-1723.0618328413418,1575.048458818893,211.14989770886675,841.5369811768041,1637.4718641983634,-42.93488339014294,1468.8629457009692,2100.1628074420373,-1516.412000520087,1818.1182736186763,850.4720536221814,767.8745715252284,1968.9975404343563,-716.9030915790981,1491.2070497064585,1860.3340061496133,-240.40674581326687,1572.2322774493005,835.7925619691762,285.5111958932075,1695.0780837859277,-1059.958501831134,1464.380937684665,21589.29827694688,-0.0,9726.141364009613,17007.697895431895,-674.2057302637724,19746.748488566,-16302.939489199163,5990.914814680524,16008.403681377542,10527.944858084515,-812.8997070694886,12849.554487754029,-10299.626688109027,12021.577397998875,-10699.539431355628,1907.4716230336112,12854.216146040892,14479.162424760969,-4564.368266978596,12310.651940516711,-14153.299411962122,8334.947736705844,-9291.087188741549,-1893.2911222460393,3294.61475671031,10290.042253833411,-42.99122277494659,11725.842286748566,-8189.133545852015,5747.624570261783,-14940.443031598357,-2863.561418029684,5653.864340981401,18202.20414288107,-9386.070918186258,9449.498522721999,-17279.42391935389,2031.9048317817492,-7548.4984914469405,-7622.38955883342,-2463.067631710638,12251.345979874743,-7313.867273850646,9580.453960123774,-10885.970683901922,-378.9620114160686,-10860.84651067582,-11814.882660354771,-7067.544401279874,11229.42537912999,-7413.905908784762,6539.613356900139,-8612.503976347836,-5997.34664998307,-7341.385978830278,-11318.843767816881,-3211.7921951881945,12470.29467488117,-18247.269368195637,2654.9897897189185,-13042.729522247013,-8228.947765483716,2029.8639162931358,-15670.465771342537,-6024.75379031107,14767.76211046537,-17851.80403815071,-1088.849101942925,-13232.69484410719,-10366.051852303604,6132.790490259228,-14353.598509115593,-16566.52187363149,7589.268394446138,-10639.503950708684,-8621.661283103866,-1240.2919593571028,-14108.973374156929,6586.867180835219,-10987.172605625885,-20260.7047511785,2805.6941930750972,-7031.474849064755,-12138.518464908862,3374.5004935859797,-16808.602003632688,9082.925594831831,-7504.935651028416,-9187.634946106285,-3366.961459487336,-8671.92290553548,-10606.796447201832,2116.0414292635705,-11878.3170108273,15682.408900918359,-6019.776093415892,-16349.803675461404,-4566.646596939323,1351.8014037648488,-14753.146164428841,9832.357534323059,-13568.472711476723,10798.61476676828,-104.27518549101023,-7499.793432779242,-10661.14879430144,-94.00853041232733,-11952.277843219576,9602.848544404726,-8450.908509703288,19019.41773501608,3089.862439354563,-3966.899237304934,-14337.70757321565,3548.5228208611393,-11074.171245558231,13048.406550737314,-4208.830803350391,16268.831066101011,6579.394118247128,-5938.173306876314,-12903.500316960788,13027.79741788751,-14025.739629285163,18740.78343202684,-766.4918357146279,5709.8935695389955,15095.788008542806,-4230.063341944424,18515.16635730975,-18056.648636295187,3311.4058207980506,-20086.57269139195,-5271.831764848591,-49.77243279077862,-18392.851441648367,-12272.589466294896,10072.41682979809,-8020.605665222435,-3683.868977117579,-8028.472233961735,-12332.209087680212,2305.2939734614715,-11173.867294081338,-13880.817003325072,5745.608282787853,-3212.0844365429184,-6338.626100865259,-1598.7280907335953,-14778.267608754328,4297.471667057976,-5339.347679611224,-5216.152334174589,1453.1969915927912,-10051.071835324012,-450.8608265551685,-2606.441267956341,-9217.198021768745,8841.877708502307,-11828.531835198064,-13265.42636085911,1493.2869385327003,-2304.550496608597,-8298.142646229186,2385.378984831383,-14236.947556072011,5490.7081928590615,-1928.0613374367272,-6060.012484798549,-1001.3135812403102,-7527.542426767612,-3624.784389510061,612.7510360257934,-10312.625492619118,12031.592118970646,-8419.951005343934,-5886.944629218282,-3811.0295550575065,-4972.808506567657,-4685.921198029386,4579.418727605907,-6794.476264415879,10478.843349854997,-5885.859289020967,-11888.689000868966,-2581.1839892320277,1974.7876699775904,-14817.285668775097,12265.087927205568,-9130.887603602003,12949.118829136743,6213.135727631153,-11216.947110824782,-10695.158276596661,8940.4437174095,-14673.342579449833,14343.665263054032,-11328.098738487035,11796.01096007141,10063.646283176375,-1539.850345860048,-15348.570538614316,8812.021015484945,-4622.992742049071,15386.951745551447,-1251.6899364605968,11005.477175958462,9995.535264144111,4219.634556649109,-15648.963607276219,11008.78980574746,-691.0337792519289,15285.762010387214,5951.922909243971,5370.482214534481,11128.140739903169,3294.0715901263397,-7239.978754622095,11646.509635563107,-5363.894546907097,15361.653764380153,6854.448095207568,560.8713552160636,18027.19585237291,9883.138250027067,-12985.721981633942,13818.706091100295,5242.378716416802,10989.1463457382,13834.340393911752,-4148.289021323984,10518.36169774272,10320.342903406772,-4537.552987226875,10504.405616932676,3367.884053472436,9619.536684650113,12517.538568292304,-7494.10522998904,17151.021213716864,12448.35164974691,-967.4605983942866,10994.260432498162,7066.000799202979,3139.977416055348,13295.980695345035,-9407.779017445104,13564.835652908809,15227.8244470535,-912.4688698898578,7478.048461079255,16705.42124963004,-4968.466706355668,20887.524715044834,-17086.28138132443,2322.6880959907776,-1214.7680558162388,11913.944108220498,-10609.824530575805,4994.095118516692,-12261.723971659467,-1054.3401948585997,-2670.8528168853336,-10175.042384387609,-6006.93472039588,8553.758148853642,-7742.515724876968,-632.4451120400169,-7448.5977116391905,-6542.271706482377,-1352.6323626408534,-6689.094068134918,-8184.270296735305,6326.195963296404,-6147.121111968279,-2571.6613181691955,-4736.061543189718,-8508.984822080405,416.3988737339819,-4895.674064539469,-6397.5518166321945,2333.132577701792,-8903.657974460004,-175.7415077594328,-3820.663461382401,-6847.3148100151875,3412.1834216863913,-10536.519589121526,-11245.451360153871,2079.1333332293407,-4437.315105488122,-6072.912571757889,92.01388814846837,-11258.231860849646,4514.0328706841265,-2462.0076329976614,-6341.888353014092,-1767.2654953691329,-7011.169364049358,-3677.591952604335,232.7749745713752,-6886.379285034634,6843.563880673226,-7923.723764370173,-6234.209913639949,-4482.287389545721,-4728.405385080969,-4679.703799535599,3750.8089654446594,-5441.414981331237,6658.318059116062,-4614.871629926593,-9497.210681299544,-2251.582236545739,-1514.3819658465154,-14417.643137166804,7412.827839739601,-8937.478070134002,11646.718278521692,2531.9399205682284,-7490.807981024895,-4180.392099556884,2237.6947330190897,-9476.29457950105,5453.040772984199,-7808.912529234665,6959.186757426491,4847.932119060408,-2644.896330043817,-8640.840523809984,4960.53901910939,-4317.35564909831,8225.538599490355,-1068.7757617607072,5223.078627363477,4200.323587596731,145.22581915565115,-10664.437355701957,5709.79248376207,-2566.2584417451117,8747.838979143122,1758.3256646150533,3270.5496603602887,4728.62404254065,-289.1962965133116,-4256.581203737243,6150.7150333371355,-6788.226862153879,9008.683549280075,702.6951650138578,2937.829992359342,10266.770893059933,3647.705479197265,-11281.19063177615,10273.989475402639,650.9525982366409,9932.1393007448,7058.671543513452,-1382.9202691149476,8014.489480137863,7400.981559976095,-4431.1838795157855,7866.339235515183,594.130420849271,6171.714922046657,7636.057119651312,-3722.1447273300855,12334.370624218021,10079.882782537294,-3008.448174924663,9094.168621992929,3597.809814495027,2975.736346486645,9758.55649844207,-7043.490507530839,10420.265414731915,9802.50350319115,-3929.1039756086484,9165.337222770246,10776.47410032362,-668.1298892976349,14851.583964699032,-12426.040163327416,2851.077401866987,-11645.607181296069,-4518.110070225728,-925.2799566740154,-11529.010177607644,4999.687672425263,-14040.983395283667,11823.987532109784,800.9564757632893,-5761.174381249394,-8248.040931283087,1219.30537944247,-5970.553700735449,10492.130624117133,-6324.106866254053,8778.372894812499,2029.9848124699026,-2793.011117158241,-8950.75444342237,3407.56026806909,-2664.0382708527986,11624.769221683764,-1798.785718834647,4134.363548682813,3618.5042848985026,-2028.1547051150646,-4542.013404425332,1385.0801798198504,-8747.772037508901,9896.150285884647,-572.0966043497258,7996.979015239532,7776.384229579443,472.0675609678782,-11742.79731898428,8264.499890876634,-2852.784273901505,12637.352216026648,3205.027079260455,972.7991754872018,6197.062779702331,1956.6439422912376,-6153.432165751477,5828.753873367099,-5975.219687337567,9966.611789750148,3004.4400259179774,5394.429512858655,11062.272247565843,5454.989518078619,-5891.993554788071,7327.088622287875,-1491.1466347565101,6365.589655016918,6515.716126659233,1377.333879834147,8979.460212061193,5746.510347137406,-8598.589426096396,12122.554673425877,4359.506074164466,6195.536082623357,13123.706307109089,-7751.404074955442,10425.63962861336,9749.44600801785,-7270.272928452798,9668.615413028085,7097.174807427729,7263.592895575839,11767.639794451232,-8287.60313920942,7558.224054392031,11153.645577451021,523.9923531076147,2836.477238799601,5324.377785369781,143.2839409596562,12552.248449338795,-7395.303869409959,6646.489631738563,11348.099659690193,4779.9400375232835,972.556233544239,8573.913047728409,-5705.600637292499,12690.717579432563,-10134.021422985781,1897.0331137486503,5977.481619943726,3290.8249688498345,3757.586499283846,8525.013911540933,-7551.9100879625985,11545.103382551732,-12679.862895560616,-512.4398352568724,11422.5805171204,9148.99270835188,-2388.8087512159036,12891.018836783023,-12763.641535521376,9343.54078253787,-10391.63728694553,-4820.25225626374,4207.18855457791,10225.22046168245,-3508.6656973065083,9940.11681842015,-11749.658004232053,6287.467745965649,-12936.408807472924,-6662.4509964678855,1110.6203701215716,13493.040013234888,-9107.653273254304,9998.090977547949,-13698.369979324085,-23.06313828251882,-8955.932743959038,-10165.500103176684,-2599.2390501260493,13340.410220834272,-14216.31692158799,5126.332824524332,-16452.993484784594,-5413.8007805514135,-2680.9309695553065,-15400.405180398931,-6072.5045181584355,14377.679209152651,-14234.63623507467,2101.359805898386,-11888.667886256444,-5667.461783730454,-242.981547943343,-12834.40797250799,-10953.303278728567,8368.807222690091,-9964.8927246286,-4246.340325368633,-6653.338544208304,-10363.967220860388,3037.19566756959,-8856.0371250266,-13317.949857186426,4456.563703498592,-7522.667803546273,-6942.913883994669,-2276.4276174360903,-12086.302880089832,4902.475608153756,-5866.7649443624205,-8962.77459963266,-942.8252787937006,-7215.217085310438,-3825.9554115173155,-321.73796395743943,-8161.104086684409,6059.019339685575,-8308.239550865099,-12385.963278976618,-1409.8946386987166,-3513.427821056802,-8809.888101984074,2772.6001315425156,-11197.411121480323,7654.254881312449,-2315.034814917519,-7246.004513547641,-4347.993631846649,-3985.296411754643,-6639.153219674126,3675.0504276250676,-6913.357928664369,9159.930695906653,-3588.860369905382,-5667.452214961324,-7449.021531520578,-1976.285305176504,-6181.865349057722,6763.924168143296,-4067.5604888909747,7986.633695495408,-1707.0271071396955,-7416.5033914521355,-4838.856709480297,1246.426209712991,-13046.581185287696,8019.133674682479,-6479.905493411798,10294.613527739377,4034.389585732705,-7170.54470217375,-8617.970420686699,5990.046263335648,-11732.16412948502,10026.086913561176,-5168.035003666943,8470.800478694176,8473.577099586653,-767.6064891178889,-13258.88923362138,9674.260071471697,-5200.191306306107,11249.498539739841,2534.4549071127767,5209.65190475489,8820.535706890189,3219.004883472115,-14629.856243789613,11201.770837090615,-1749.8903623267252,11469.48149627492,6551.460390099571,1661.2279967388804,9063.26956049665,6124.8683095579,-5812.487710950698,9431.71567004737,-2441.7708993787755,7520.741116354041,5991.136602856285,-532.0275243827405,12143.893179038241,7957.175599454703,-9759.47238467549,11336.459337955495,5119.37717814303,7100.823088106992,11081.40306670484,-4746.328082733973,8559.732357505549,10644.0383031902,-1917.9067662623793,7779.101738663161,4516.1446389861285,2004.4491339178455,9996.00990795379,-7711.642390321571,11288.390620269567,12460.208237434501,1228.9181301243532,6085.504649417942,7020.795523943056,-1975.6202412764262,11052.410401464882,-9189.884702835865,7881.109588851046,9783.539680484664,562.2773646870698,6132.834606575094,12322.43844397155,-4437.075128499294,12544.280602609113,-12680.379245531449,-147.24859759263063,-10471.505389264461,-7906.430824486144,2092.0364405899554,-12563.125510581714,8190.0154608472685,-11116.755076673133,12434.61613404873,4042.7487687620974,-3577.960179657395,-10798.654451113714,5014.4998772158515,-5115.856967528205,11605.639052936094,-2960.272689794205,7202.802849897641,5709.968018165178,-149.1428613671876,-10921.520363104524,6307.296365233321,-1091.7936654191167,12047.085029443224,2264.2185109525944,2182.2953990342066,5870.119576292849,1861.9074067255785,-4122.677404808626,2396.783001598834,-5539.8803148186435,7546.126221434757,2238.46987650489,5122.386978365762,8294.134235780333,2562.447038313593,-9349.190355580658,7322.579952973856,-198.21930352846255,9867.89768953994,5428.130888969495,-784.4231880260957,5814.993703897773,3094.177861929032,-4013.174473913911,4549.383122312374,-3553.0052500803313,6648.544215174299,3930.005343405046,2344.0453508047462,9688.45070099003,5785.704228375942,-3101.2228756663717,4670.352510528934,-711.7739823706991,2972.296330753486,6514.405746601848,724.9296094251202,7519.450935668027,4615.4399811658495,-6436.103005236056,10024.649307573778,4563.620113838977,3910.1156138871575,10889.89412189623,-7349.813275315161,8084.4723864801435,10602.783017499663,-4293.279218615318,8656.845135113606,9858.454448780827,3709.4207288217003,13055.618182000831,-11111.023901981196,6257.669327710821,12164.495809769414,3536.451873669515,856.9848609168605,8463.501036400776,-4091.4937687527995,11973.81357319123,-10158.10511613917,4270.7227037779685,10942.986707608954,7839.111688842631,-2785.8481392620206,9945.707963188896,-9698.12291951337,10798.183713938835,-10246.876798721689,-1092.0022481819383,3184.1892112652968,6759.689457652588,-37.624477698672536,8654.794267379868,-9465.71891701713,7751.25925046516,-12212.272611034976,-4058.8116736300453,7234.693817494373,10075.285025308309,-6989.656763624354,9874.607230309764,-13415.116146303657,4969.947458905424,-7099.900355703708,-7192.202098194635,-126.96132529035958,9732.048033767504,-5383.05147544049,6154.158325634075,-10576.741502041285,2281.8615505579555,-9713.212126941671,-8696.129941637118,-3359.0685398470687,10817.61632335515,-8661.36124289103,4844.301033239621,-10477.196895643694,-3127.2719513617717,-5553.9863030790475,-9466.166712228529,-4126.914950212525,9915.248382724427,-13103.712574234763,1764.8970802107656,-12689.67267236016,-7211.722947209679,1460.0016114680222,-12795.741871003956,-1915.150633810448,-2665.330395536622,-132.65426011903645,-3399.978579155667,2404.952332429537,-2109.7857436084064,3060.920731496877,889.0337401256462,-338.5672587527278,-2758.219682922884,2037.8683908281814,-2546.8513032213023,3830.765801532433,-545.9135679790204,1973.7011779370177,1991.0149823960942,660.3396379493768,-3131.681239053708,2745.146494479758,-1064.195579652766,3844.2555410704563,925.4449714371974,307.5928223634756,1883.4429943213356,2219.132705171117,-1931.5770960461184,1907.3527142172277,-1496.5587177490904,2932.5952723795835,1925.1780891861617,1475.858261964374,3531.1777883891764,2862.6860043905126,-2175.636437222809,2106.0253023299656,304.63237197335144,2041.6900193791553,3527.026482610446,-1734.046522786367,1574.0048347435256,2301.266266396912,801.0398220026404,2011.0953486444141,-758.6676235490785,-114.49688603022616,1541.318250099168,410.77907624110236,2612.1884212840023,3228.6245143690558,1559.1290197765034,813.3603312054195,408.875461788747,-1357.1883744025745,2445.6927363453024,-449.00683282623413,977.9204961518617,1148.0801107811762,-1026.7222953958085,4704.82699329949,2955.3060076158426,815.689585625371,4054.902401164025,-4309.1582194094635,2458.7551124943625,1160.5203980278955,-648.8297538573127,1930.1128950803914,955.2419534160676,1192.9005093975056,2248.241795125736,-2510.278900501641,838.9750426547782,2234.0963116972225,1189.5670711153748,673.058708550167,2134.517088541358,-1571.9824320434711,2440.172760289801,-2426.6697125218907,781.7167849978985,3010.356555330407,2738.768324987781,-1185.44743006083,2335.4266402459484,-3395.0380824141675,2703.725623983023,-2004.583371734961,-1199.4743449713233,-525.24407196016,1134.4166345542305,921.0974127929221,2696.406210935366,-2027.6244465016212,2260.643019103114,-4291.749337969364,-1699.866627691501,2851.4424293320003,3082.5065912272453,-2074.3018365102025,3623.8565149676488,-4734.032655497764,1817.131792617724,-2332.876212230787,-2845.094961941236,-1411.2200566992717,3406.8506656789787,-1902.6488993697449,2478.4043399163174,-2814.788818218747,-41.18694361369984,-3956.499904178769,-3875.8362060126533,-3027.794533978282,4706.801148613691,-3688.491803896928,904.7938492911904,-3739.162226934251,-2568.025634357535,-854.4059500783114,-4638.275946501384,-1290.4000260811197,2907.1420836365915,-6332.149875467306,872.9917476738208,-5177.949864482338,-2990.9664126724447,2427.3691839465137,-6034.226506879033,4594.08547927056,-1056.4507946529015,3861.4941550575986,2423.1918968713417,2319.9007824293976,4901.189451206377,-3411.936646769696,4056.282775474104,3908.9824783176273,1567.4342471437087,1330.695977614973,2830.438849430591,-1324.0266196184912,5280.143490835903,-4012.9525907745588,2504.3587319584885,3531.9787428416867,2726.960273988817,-1179.5475034658148,3509.7056105777756,-3528.5218644815523,4879.436470162516,-3818.797108788593,-621.1561655369188,573.1286156892229,2279.0851512241825,1103.3032194044242,2945.4977369106364,-3620.0004511794236,3484.982122953936,-6157.908047920107,-443.03222598497456,2573.435619982778,4137.872728489343,-1527.618377804812,3806.9775557570792,-5464.524219156792,2232.74805102658,-2570.513029504331,-2539.2376738768166,-975.2683748588618,2720.4054833188725,-491.85036607638835,3269.1607278241167,-2670.1626055934585,1300.597638691521,-5410.5884551039035,-1461.2858371210964,-2241.067780621963,3959.613231398189,-2652.1720624290683,1327.2237969685684,-3548.167075780073,-1469.0722945004043,-2294.507936684549,-2285.847038018385,-68.88520946229812,2636.606534606387,-6192.7616188097945,2459.7037922012123,-6638.018146723763,-1404.2987387273593,-954.0253707824669,-7527.630871533362,347.09387938522354,4309.028468329112,-4241.30498367026,2309.9052302087066,-6222.2717488516555,100.49141607361099,-1138.247491718985,-4967.57282987942,-3299.7446743783985,3644.8910079062825,-2681.6332385328215,-89.69221270538844,-3764.2794886491165,-2729.613201707638,-1790.6890114326302,-4109.044354470303,-5964.135292430903,3204.1682375127625,-4064.1920738337335,-3275.661106122341,-3648.031104774779,-6581.053744264162,2452.5750990219285,-4576.710399337539,-3240.48776768021,-73.86873674932349,-4057.1591753412167,-1035.6963978078238,-2659.0164625469024,-5494.820512850101,3543.0794483173377,-5765.882743924962,-5863.994437316662,1542.0309886163973,-3891.4358764881017,-4520.023322449425,316.62828050373736,-6872.299773435167,4731.5156881943585,-2077.8518584773983,-3922.5959915574686,-2230.664923905182,-2185.275978588753,-3282.57651103652,84.7543554336687,-3812.3027131449526,4712.140019364797,-3419.3590505871225,-4619.575703636703,-4538.71215606664,79.04859447873059,-5436.500706882393,3900.084159617672,-3951.1615621295823,4874.492862181212,112.27776946717358,-3404.097392013205,-4325.816911977879,1406.1607188625321,-6377.875828757457,5213.815088816054,-4383.061336445509,5904.385394823801,2058.8129839192443,-5514.3780784876035,12631.924183620664,-12362.037036978349,1186.464060024577,-11191.768725267317,-5346.21707150232,708.7211164866476,-10741.449489231112,-10075.362036696655,6445.296662322349,-6948.190461721886,-3613.380036347143,-4203.024981430159,-8633.826106712455,1281.9899213245317,-6473.158069405115,-11792.952794382121,3591.5385922354812,-5447.329524763003,-5654.039662591847,-1015.8206294673687,-10072.12440320346,2974.5577433627486,-4536.969992139363,-6405.589402050438,-712.0793558710216,-6886.3199616721,-2523.427875955062,-1528.5418603914634,-5860.12457537372,5135.667506701835,-8180.559169750501,-11727.383881309424,-1284.1118686083018,-2563.2732709373063,-7263.755120316697,2995.2451027694983,-10135.221770026095,5536.730883153987,-2242.098771119982,-5993.876794168179,-4071.5964245384826,-4170.67253496223,-5907.918015255253,2364.744585254507,-5922.904139585919,9068.201238991975,-3876.7341291604603,-4679.709568477276,-6498.246651487015,-2498.4678275453957,-5490.603965941838,5148.511476244952,-3653.1678901867017,8226.862549078722,-2031.2624263043888,-6883.096143238803,-4654.068484794876,2620.609868403509,-11504.058331455482,7780.943637909119,-5869.17496430334,8750.26315156688,4555.242821565769,-7012.704487938614,-7260.502656066191,5679.748424710337,-9772.94807040137,9294.435673613752,-4898.128938691846,6210.041991267955,7429.703175077635,144.8699183225708,-11449.921593530897,7720.414401435715,-3297.3935882905034,8367.939344249873,3028.9955659075854,4315.817794428751,6519.057246437263,3497.202547280086,-12365.219839612888,8563.752676329394,-564.9323000041097,8723.47072370632,6092.651326307426,1796.4543563720804,6797.773461016617,4164.703726530086,-4186.3352310085675,7998.698501990717,-2243.347338703307,6327.859736807279,4244.9781945104105,-650.2883956478495,10348.105927284356,6866.589449653913,-8462.480071237493,8285.298810963293,4896.733371021972,5363.265662090525,9283.278974317209,-3007.0558522993965,6170.521018794492,8370.432978974226,-1535.4387719801969,6784.564495893206,3408.7312103968193,2309.948650451705,7975.706868667692,-7064.490976923924,10161.87779582689,9361.714379092933,1389.3422961110837,5296.736634236464,5047.4625261841065,-890.3406570996533,8666.782077898799,-8194.628029720083,7545.366590005858,8995.773278007842,23.505880108698875,4371.587404650929,11275.23685316797,-4531.2789780707235,11082.5109184364,-10232.432821512502,-1142.4540621545323,-9394.27460449632,-7272.44006579308,3101.29422314983,-10783.38039355314,8240.793903372181,-10144.369763787501,10105.050159386803,4856.270880978087,-2067.755844146851,-9491.99018841582,3846.956288911965,-2919.8509169243384,9268.067394756541,-1105.6205885714985,5363.265439268128,4095.208720953509,451.15453674148307,-9235.859547731845,4284.69487968617,431.00119055075265,9069.791647422317,3034.507173703438,1391.9858006481418,3621.7136402499527,694.2475119791366,-2768.1198942534966,1980.3642913983472,-5450.7965461260965,5719.820135201906,1118.1011172047158,4522.426146811091,7451.6487325896705,2587.8157374366915,-7986.787615777565,5194.678324716126,986.2221856805272,7685.06149660369,5164.169881005139,-627.2318660426547,3400.113145816721,2129.006163932307,-3061.0182929432403,3826.1747496255484,-3446.6243371251394,5734.597749655228,3055.817290269548,1820.148195259705,8944.693188624196,3838.014213125409,-2374.602317279683,3792.4959420665286,-1438.0960615664635,2779.7216623906797,4569.70704005125,767.491127651941,7254.527990780622,4541.895439920168,-5973.591917229318,7697.990128014488,5038.910977470652,2243.862967587522,9626.77601435687,-6801.2033406770515,5868.346125518328,9392.001076017772,-3644.287941113893,6220.257208840371,9244.367627960844,2751.838463200369,11733.397527480622,-9449.827018587976,4142.734219705137,9716.409157858594,3594.1913994138304,-70.64848422901173,6593.208415027137,-3886.8388281881594,9697.56666531078,-8912.062441919832,3313.5601031217184,8040.308211664919,7004.156733735046,-2978.0440793109765,6963.698040883017,-8173.032838146191,7744.447108947539,-8214.077311981837,-641.1633323459569,2833.0489833496476,4560.6726155192355,-555.4745641327834,7699.516635336364,-8518.173767158709,6712.359217917767,-10207.121538169242,-4759.684050833039,5234.599953476374,9253.37627084572,-6691.54709941931,7143.305073101924,-11498.16151715103,3074.9545084142073,-5363.466899808634,-5801.988918194218,-104.01859365164523,7896.06606969018,-5218.792603159736,5311.05455717949,-10155.042704732547,2097.8423311271263,-8078.229012932652,-9165.740859601125,-3148.764513135601,8132.373913258295,-7631.588568353027,4170.187160882377,-9016.63353479968,-2279.4271352507994,-4941.3322633039115,-9403.26209154037,-4260.5339678699975,9109.940027254546,-11986.52757225447,-525.5196576391022,-11019.597329645838,-8515.759082029856,3345.589302664526,-10974.648041809009,-4733.18753979146,-2566.356456011548,-609.8051494267143,-5330.365385675442,2738.2680411112533,-5099.122243872105,4627.099830244202,477.61344538810135,-2200.107592813654,-3553.96610983779,1036.1486657310722,-3202.716312841608,3998.705675440875,-1934.27784747634,3215.428509708997,187.63431334463394,-1052.0117805812797,-4274.057424869514,1843.9656558261422,-2004.0455855095886,4449.025810223215,-417.730030114436,1939.1586611159605,599.3190511324426,34.238204889556755,-2792.058543130057,1475.7355219140265,-4252.070543513406,3853.2186151287633,-389.536518282026,4245.777558668068,3618.3613099095255,1592.7786500275365,-4830.537652083417,2844.3207671017617,-791.3360843974592,4362.223187395676,2545.7538431296957,35.703590744818484,1764.0483840840902,1467.3655392548035,-1563.6956853606869,2913.4356453027717,-3055.9791912392648,2644.0780966395505,834.609595945187,2631.8644500890646,4587.254763441405,2694.3172306164065,-1052.2164174293787,2488.9212196095486,-1651.6138004692864,1352.762031053596,2203.4180372014325,1129.1032017112295,3450.6164866452627,2333.5605360557615,-3954.104965952572,6925.7859835898635,2389.3989942032285,2684.7315154767853,5124.855932118453,-3631.2734722110204,4609.24527064862,2644.112981708065,-2865.1564233133777,3881.254260959167,2038.378095400401,2831.682385529287,3744.6088411137166,-3099.1718001414906,2085.1447139137413,3799.6179126712814,325.06469256767014,1300.1793555416898,2538.535588830702,-732.6101826193817,3700.231921711871,-2679.970475055902,1935.4377899733283,4252.830130461132,2119.4408404770884,22.62824044389299,2420.665931267125,-2475.383363289463,3444.004508803131,-2378.1693425031663,491.5926596279053,1590.5511570239848,-62.006655765561845,2322.0378387180895,3974.224398447359,-1841.0659610671241,4210.503661159794,-5255.050755485543,-748.6091787191365,4804.000362235312,3622.046469225159,-1809.646132294481,4844.229961575763,-5234.214217608729,3468.876072910749,-3649.280652789904,-2118.066284250255,588.027807623987,